eps1        epsv      eps3             epsq       Void ratio    q           p          eta = q/p  
[%]         [%]       [%]              [%]        [%]           [kPa]       [kPa]      [-]

0	0	0	0	0.813569451	1.60	298.97	0.01
0.003318006	0.003745421	0.000213707	0.002069532	0.813501525	6.033681505	300.5147902	0.020077819
0.007394216	0.003745421	-0.001824398	0.006145743	0.813501525	11.1464823	302.2704821	0.036875854
0.015442238	0.010299907	-0.002571166	0.012008936	0.813382655	18.94353232	304.8587218	0.062138725
0.028878154	0.019663458	-0.004607348	0.022323668	0.81321284	32.60124766	309.4117036	0.10536527
0.0498636	0.031836075	-0.009013762	0.039251575	0.812992081	51.59563053	315.6526495	0.163456985
0.073312126	0.045881403	-0.013715362	0.058018325	0.81273736	71.36275655	322.2003875	0.221485632
0.097154745	0.065076683	-0.016039031	0.075462517	0.81238924	92.81243849	329.3801525	0.281779087
0.134987661	0.094103693	-0.020441984	0.103619763	0.811862815	125.3855566	340.3096075	0.368445539
0.180998004	0.122662525	-0.029167739	0.140110495	0.811344881	157.2185921	350.8297764	0.448133547
0.229964044	0.150285002	-0.039839521	0.179869043	0.810843928	187.6856486	360.9542789	0.519970699
0.272033458	0.176971124	-0.047531167	0.213043083	0.810359956	215.940973	370.3936183	0.583004032
0.322871439	0.202252713	-0.060309363	0.255453868	0.809901457	242.7727775	379.3472642	0.639975032
0.374596129	0.225193415	-0.074701357	0.299531657	0.809485412	267.7631131	387.637138	0.69075712
0.422182843	0.246729583	-0.08772663	0.339939649	0.809094838	291.4336455	395.5370265	0.736804966
0.469079895	0.267329397	-0.100875249	0.379970096	0.808721246	313.6264691	402.9340604	0.778356808
0.524646991	0.286524677	-0.119061157	0.429138765	0.808373127	334.7386328	409.9419053	0.816551391
0.579918517	0.305251781	-0.137333368	0.478167923	0.808033498	354.7244384	416.5933915	0.851488395
0.639130971	0.323042529	-0.158044221	0.531450128	0.80771085	373.74386	422.9328707	0.883695465
0.692924648	0.337556033	-0.177684307	0.580405971	0.807447638	391.6464862	428.9202447	0.913098626
0.747703558	0.352537716	-0.197582921	0.630190986	0.807175934	408.6254213	434.5491988	0.940343286
0.800216434	0.366114866	-0.217050784	0.678178145	0.806929703	425.0148904	440.0640261	0.965802395
0.846522346	0.377819305	-0.234351521	0.720582578	0.806717435	440.5544671	445.141609	0.989695095
0.898444083	0.389055567	-0.254694258	0.768758894	0.806513658	455.4006044	450.1511295	1.011661583
0.953025946	0.398887296	-0.277069325	0.820063514	0.806335353	469.5357705	454.8739565	1.032232696
1.000809707	0.407314492	-0.296747607	0.865038209	0.80618252	483.0304197	459.2906309	1.051687945
1.065637985	0.415741689	-0.324948148	0.927057422	0.806029686	496.0264529	463.662798	1.069799982
1.11263356	0.422764353	-0.344934604	0.971712109	0.805902326	508.6396642	467.8775687	1.087121286
1.171353399	0.428850661	-0.371251369	1.028403178	0.805791946	520.5730603	471.8356994	1.103293076
1.223373658	0.434000614	-0.394686522	1.078706787	0.805698548	532.2484237	475.6971242	1.118880894
1.275196871	0.438214213	-0.418491329	1.129125467	0.805622132	543.1808599	479.3513906	1.133157993
1.335394558	0.441959633	-0.446717462	1.18807468	0.805554206	553.977621	482.979608	1.147000022
1.389582328	0.445236876	-0.472172726	1.241170036	0.805494771	564.1919535	486.4565445	1.159799287
1.449385922	0.447109587	-0.501138168	1.300349393	0.805460808	573.9538524	489.6190938	1.172245649
1.501800274	0.448514119	-0.526643078	1.352295568	0.805435336	583.6197512	492.7795141	1.18434256
1.561209775	0.448982297	-0.556113739	1.41154901	0.805426845	592.8523159	495.9289486	1.195438011
1.616284254	0.449918652	-0.583182801	1.46631137	0.805409863	601.7777104	498.8634321	1.206297499
1.671260211	0.448514119	-0.611373046	1.521755504	0.805435336	610.4542589	501.735291	1.21668591
1.730866758	0.446641409	-0.642112674	1.581986288	0.805469299	618.9884945	504.6208482	1.226640748
1.788404318	0.444300521	-0.672051898	1.640304144	0.805511752	626.9727656	507.2717409	1.235970221
1.844168459	0.4405551	-0.701806679	1.697316759	0.805579678	634.7747722	509.8419647	1.245042221
1.902494205	0.435873325	-0.73331044	1.757203097	0.805664585	642.4942186	512.4657185	1.253731119
1.953332186	0.429787016	-0.761772585	1.810069847	0.805774965	649.7953221	514.8695487	1.262058173
2.007815526	0.42323253	-0.792291498	1.866738016	0.805893835	656.8857586	517.2432305	1.269974588
2.062495912	0.416209866	-0.823143023	1.92375929	0.806021196	663.83806	519.5101413	1.277815402
2.113629463	0.408719025	-0.852455219	1.977389788	0.806157047	670.553636	521.7994357	1.285079266
2.17629023	0.401696362	-0.887296934	2.042391443	0.806284408	677.3332569	524.0387393	1.292525163
2.239148043	0.395141875	-0.922003084	2.107434085	0.806403278	683.4588282	526.0299094	1.299277505
2.290577164	0.388119212	-0.951228976	2.161204093	0.806530639	689.9751497	528.2830666	1.306070918
2.351563036	0.381096548	-0.985233244	2.224530853	0.806658	695.7951051	530.2432117	1.312218789
2.402992156	0.374073884	-1.014459136	2.278300861	0.806785361	701.8981479	532.2578913	1.318718162
2.470184991	0.366114866	-1.052035063	2.348146703	0.806929703	707.4761346	534.1673332	1.324446649
2.528215167	0.358155847	-1.08502966	2.408829885	0.807074046	713.0375882	536.0216431	1.330240294
2.586048297	0.349260473	-1.118393912	2.469628139	0.807235369	718.2394084	537.7456261	1.335649001
2.637970033	0.341301454	-1.148334289	2.524202882	0.807379712	723.805597	539.6009403	1.341372008
2.691665187	0.331937902	-1.179863642	2.58101922	0.807549526	729.0692041	541.355722	1.346747018
2.744473632	0.322574351	-1.210949641	2.636948849	0.807719341	734.0853357	543.0270279	1.351839408
2.801912669	0.313210799	-1.244350935	2.697509069	0.807889155	739.0100271	544.6894897	1.356754704
2.860533984	0.302910893	-1.278811546	2.759563686	0.808075951	743.7880813	546.2825844	1.36154456
2.91826859	0.292142808	-1.313062891	2.820887654	0.808271238	748.3403671	547.80956	1.366059342
2.970091803	0.281842902	-1.344124451	2.876144169	0.808458034	752.9596593	549.3296561	1.370688167
3.020338645	0.271074817	-1.374631914	2.929980372	0.808653321	757.2860756	550.7713029	1.374955579
3.079551099	0.259838556	-1.409856272	2.992938247	0.808857098	761.8030042	552.3176757	1.379284129
3.143492668	0.247665939	-1.447913365	3.060937355	0.809077857	765.825932	553.6996277	1.383107183
3.196695206	0.236429677	-1.480132765	3.117885314	0.809281634	770.1062688	555.1162036	1.387288398
3.254823905	0.223320704	-1.5157516	3.180383671	0.809519375	774.2037589	556.4717486	1.391272353
3.31068657	0.211616265	-1.549535153	3.240147815	0.809731643	778.0541051	557.7760134	1.394922131
3.36576105	0.19897547	-1.58339279	3.299435893	0.809960892	781.8975198	559.0560036	1.398603207
3.417584263	0.186334676	-1.615624793	3.355472704	0.810190142	785.6634886	560.3426735	1.402112539
3.470983847	0.172757526	-1.649113161	3.413398005	0.810436373	789.5259336	561.5590622	1.405953508
3.538373729	0.159648554	-1.689362588	3.485157544	0.810674113	792.9533491	562.792705	1.408961669
3.58586192	0.146539582	-1.719661169	3.537015393	0.810911854	796.7095856	564.0651079	1.412442597
3.639261505	0.132962432	-1.753149536	3.594940694	0.811158085	800.017199	565.1475677	1.415589918
3.708227758	0.11798075	-1.795123504	3.668900842	0.811429788	803.2760638	566.2040669	1.418704158
3.757489367	0.1044036	-1.826542884	3.722688168	0.811676019	806.3879173	567.2110704	1.421671683
3.81295794	0.089421917	-1.861768011	3.783150634	0.811947722	809.8213165	568.4568288	1.424595986
3.864682629	0.074440235	-1.895121197	3.839869218	0.812219425	813.1590196	569.5685765	1.427675355
3.923599514	0.05805402	-1.932772747	3.904248174	0.812516601	816.0054679	570.5781186	1.430138032
3.986457328	0.043072337	-1.971692495	3.972099882	0.812788304	818.7517076	571.4834929	1.43267779
4.0364086	0.028090655	-2.004158973	4.027045048	0.813060007	821.8217458	572.5168779	1.43545418
4.087345104	0.013108972	-2.037118066	4.082975446	0.81333171	824.5873892	573.3685681	1.438145436
4.143897431	-0.00187271	-2.072885071	4.144521668	0.813603414	827.4214629	574.3637003	1.440588015
4.209710941	-0.018727103	-2.114219022	4.215953309	0.81390908	830.033664	575.254594	1.442897932
4.264391328	-0.034645141	-2.149518234	4.275939708	0.814197764	832.962977	576.2111177	1.445586438
4.327938804	-0.051031356	-2.18948508	4.344949256	0.81449494	835.7091719	577.136637	1.448026548
4.380944296	-0.069290281	-2.225117289	4.404041056	0.814826078	838.0915044	577.9410328	1.450133243
4.440649366	-0.084740142	-2.262694754	4.46889608	0.815106272	840.6275644	578.7970811	1.452370082
4.499763297	-0.101594534	-2.300678916	4.533628142	0.815411938	843.007421	579.5702887	1.454538712
4.554443684	-0.118448927	-2.336446306	4.59392666	0.815717604	845.4219826	580.4047675	1.456607578
4.614444324	-0.13530332	-2.374873822	4.659545431	0.81602327	847.7608631	581.2154954	1.458599899
4.664888212	-0.153094068	-2.40899114	4.715919568	0.816345918	850.2206106	582.0656922	1.460695282
4.723312481	-0.169948461	-2.446630471	4.779961968	0.816651584	852.1074474	582.6342398	1.462508362
4.780455948	-0.188207386	-2.484331667	4.843191743	0.816982722	854.4469063	583.3938174	1.464614264
4.843018192	-0.205061779	-2.524039985	4.911372118	0.817288388	856.6730491	584.10542	1.466641157
4.895432544	-0.222852527	-2.559142535	4.96971672	0.817611036	858.7381358	584.8345123	1.46834381
4.955236138	-0.240643275	-2.597939706	5.035450563	0.817933684	860.4927178	585.3980649	1.469927506
5.010015047	-0.258434023	-2.634224535	5.096159722	0.818256331	862.6008339	586.1322813	1.471682863
5.079079824	-0.276692948	-2.677886386	5.171310806	0.818587469	864.3792718	586.6944029	1.473304104
5.14538595	-0.294951874	-2.720168912	5.243703241	0.818918608	866.4417343	587.3003484	1.475295795
5.195731315	-0.312742622	-2.754236968	5.299978855	0.819241255	868.0759256	587.9875929	1.476350753
5.249919085	-0.331937902	-2.790928494	5.360565052	0.819589375	870.0419955	588.6424575	1.47804832
5.298786602	-0.350665006	-2.824725804	5.415674937	0.819929004	871.985739	589.321555	1.479643383
5.354058127	-0.369392109	-2.861725118	5.47718883	0.820268633	873.5806995	589.8529625	1.481014346
5.405487247	-0.388119212	-2.89680323	5.534860318	0.820608262	875.6132552	590.5613361	1.482679616
5.456128182	-0.407314492	-2.931721337	5.591899679	0.820956382	877.1689133	591.0687018	1.484038845
5.515340636	-0.425573418	-2.970457027	5.657198442	0.82128752	878.8881503	591.7140218	1.48532588
5.592779886	-0.444300521	-3.018540204	5.74088006	0.821627149	880.168056	592.039447	1.486671303
5.642140019	-0.463963979	-3.053051999	5.796794679	0.82198376	881.9594869	592.6156926	1.48824862
5.705983065	-0.483627438	-3.094805251	5.86719221	0.82234037	883.279576	593.1059993	1.489244042
5.763914717	-0.502354541	-3.133134629	5.931366231	0.822679999	885.0396245	593.7845912	1.490506217
5.814260082	-0.522017999	-3.16813904	5.988266082	0.82303661	886.2902194	594.0703751	1.491894322
5.876822326	-0.542149635	-3.20948598	6.057538871	0.823401711	887.8216303	594.6105524	1.493114488
5.928547016	-0.561344915	-3.244945966	6.115661988	0.823749831	889.0814429	595.000865	1.494252354
5.981355461	-0.580540196	-3.280947829	6.17486886	0.82409795	890.5176032	595.4994171	1.495413056
6.032883104	-0.602544542	-3.317713823	6.233731285	0.824497014	891.5599951	595.928505	1.496085499
6.106874042	-0.621739823	-3.364306932	6.314120649	0.824845134	892.7655848	596.3099623	1.497150209
6.158106115	-0.641871459	-3.399988787	6.372063268	0.825210235	893.9872538	596.7466463	1.498101848
6.216825954	-0.66293945	-3.439882702	6.43780577	0.825592318	895.3858637	597.2031386	1.499298657
6.273870897	-0.682602908	-3.478236903	6.5014052	0.825948929	896.4564527	597.5808996	1.500142413
6.32076795	-0.702734544	-3.511751247	6.555012798	0.82631403	897.8293311	598.0283227	1.501315735
6.38047302	-0.724270712	-3.552371866	6.621896591	0.826704603	898.9230237	598.3211379	1.502408935
6.437616487	-0.744402348	-3.591009418	6.685750603	0.827069704	899.7456103	598.6871604	1.502864384
6.494858477	-0.765002162	-3.629930319	6.749859198	0.827443296	901.0069169	599.077725	1.503990016
6.563923253	-0.786070153	-3.674996703	6.825946638	0.827825379	901.8420016	599.3962425	1.504584009
6.614761234	-0.806669966	-3.7107156	6.883651223	0.828198971	903.1359058	599.8782309	1.505532055
6.672594364	-0.826801602	-3.749697983	6.948194898	0.828564072	903.9654355	600.1657638	1.506192939
6.724910193	-0.848337771	-3.786623982	7.00768945	0.828954645	904.903812	600.387057	1.507200732
6.780477288	-0.869405761	-3.824941525	7.070279209	0.829336728	905.7424174	600.6766311	1.507870242
6.843827718	-0.890473752	-3.867150735	7.140652302	0.829718811	906.6899533	601.0330424	1.508552591
6.89653764	-0.910137211	-3.903337425	7.19991671	0.830075421	907.5176563	601.3291854	1.509186114
6.958804314	-0.931673379	-3.945238847	7.269362107	0.830465995	908.3264665	601.6187848	1.509804031
7.00855854	-0.952273193	-3.980415866	7.325982937	0.830839586	909.2402509	601.9128486	1.510584552
7.067672471	-0.973341184	-4.020506827	7.392119532	0.831221669	910.1958046	602.2218195	1.511396258
7.121072055	-0.994409175	-4.057740615	7.45254178	0.831603752	910.9488874	602.5028001	1.511941334
7.174570163	-1.016413521	-4.095491842	7.51337467	0.832002816	911.6208053	602.7583658	1.512415019
7.224619958	-1.037481512	-4.131050735	7.570447129	0.832384898	912.2170295	602.8963812	1.513057729
7.293389165	-1.05901768	-4.176203423	7.646395058	0.832775472	912.9016336	603.1344575	1.513595554
7.353586852	-1.080085671	-4.216836262	7.713615409	0.833157554	913.5796445	603.4515502	1.513923768
7.410139179	-1.10162184	-4.25588051	7.777346459	0.833548128	914.1945556	603.6163645	1.51452911
7.464819566	-1.123158009	-4.293988787	7.839205568	0.833938701	915.0112564	603.8876961	1.515201025
7.522849741	-1.145630532	-4.334240137	7.904726586	0.834346256	915.3214823	604.0326548	1.515350992
7.578613883	-1.167166701	-4.372890292	7.96766945	0.834736829	916.0771711	604.193954	1.516197183
7.633786886	-1.189171047	-4.411478966	8.030177235	0.835135894	916.4628396	604.3631582	1.516410832
7.690437737	-1.211643571	-4.451040654	8.094318927	0.835543448	917.1741976	604.5801995	1.517043063
7.75024133	-1.232243384	-4.491242357	8.160989125	0.83591704	917.5462604	604.7139315	1.517322841
7.806793658	-1.254715908	-4.530754783	8.225032294	0.836324595	918.3927985	605.0667938	1.517837052
7.863050416	-1.277656609	-4.570353512	8.288935952	0.836740641	918.5221543	605.1609274	1.517814705
7.91704114	-1.298256423	-4.607648781	8.34979328	0.837114233	919.3381608	605.4523516	1.518431894
7.974578699	-1.319792591	-4.647185645	8.414509563	0.837504806	919.5105923	605.5717028	1.51841737
8.027584191	-1.340392405	-4.683988298	8.474381659	0.837878398	920.1259407	605.7764909	1.518919857
8.087584831	-1.362864928	-4.72522488	8.541873141	0.838285953	920.4459507	605.9132779	1.5191051
8.144334205	-1.384401097	-4.764367651	8.605801238	0.838676526	921.1034415	606.0719615	1.519792203
8.21211818	-1.406873621	-4.8094959	8.681076053	0.839084081	921.2044763	606.1160068	1.519848455
8.265320718	-1.428877967	-4.847099342	8.741613373	0.839483145	921.6606735	606.2991735	1.520141728
8.320395197	-1.450414135	-4.885404666	8.803866576	0.839873718	921.7349001	606.3138767	1.520227287
8.377440141	-1.472418481	-4.924929311	8.868246301	0.840272782	922.4236781	606.5931724	1.52066281
8.44138171	-1.493486472	-4.967434091	8.939210534	0.840654865	922.3874315	606.6223122	1.520530012
8.502663152	-1.515490819	-5.009076985	9.007826758	0.841053929	922.5280191	606.6291007	1.520744748
8.556555353	-1.537495165	-5.047025259	9.069053741	0.841452993	923.1291775	606.8287488	1.521235075
8.612516541	-1.559031333	-5.085773937	9.132193652	0.841843567	923.5524709	606.9908266	1.521526241
8.66788659	-1.581503857	-5.124695223	9.195054542	0.842251122	923.6758781	607.0117204	1.521677172
8.721975837	-1.603976381	-5.162976109	9.25663463	0.842658676	924.1520565	607.1808135	1.522037647
8.789464242	-1.626917082	-5.208190662	9.331769936	0.843074722	924.259427	607.2067287	1.522149514
8.843947582	-1.649857783	-5.246902682	9.393900176	0.843490767	924.4971672	607.2559404	1.522417659
8.902076281	-1.671393952	-5.286735116	9.459207598	0.843881341	924.6867093	607.3186291	1.522572608
8.958825655	-1.692461943	-5.325643799	9.522979636	0.844263423	925.0064506	607.4663495	1.52272871
9.019121865	-1.715870822	-5.367496343	9.591078805	0.84468796	925.2447077	607.5453586	1.522922848
9.072915542	-1.736470635	-5.404693089	9.651739087	0.845061552	925.234005	607.571908	1.522838684
9.128679684	-1.758006804	-5.443343244	9.714681952	0.845452125	925.3068435	607.5863125	1.522922463
9.188187708	-1.78001115	-5.484099429	9.781524758	0.845851189	925.4490903	607.6733921	1.522938312
9.238828642	-1.801547318	-5.52018798	9.839344415	0.846241763	925.7072832	607.8520214	1.52291553
9.294198691	-1.823551665	-5.558875178	9.902049246	0.846640827	925.9568292	607.8433764	1.523347733
9.354691948	-1.846024188	-5.600358068	9.970033344	0.847048381	926.0583543	607.8983621	1.523376953
9.412525077	-1.867560357	-5.640042717	10.0350452	0.847438955	925.9018279	607.8365576	1.523274335
9.467501033	-1.88816017	-5.677830602	10.09688776	0.847812547	926.1419798	607.9163623	1.523469407
9.527501673	-1.909696339	-5.718599006	10.16406712	0.84820312	926.0513428	607.8859039	1.523396639
9.585039233	-1.932168863	-5.758604048	10.22909552	0.848610675	926.0662779	607.8609293	1.523483799
9.65075422	-1.953705031	-5.802229625	10.30198923	0.849001248	926.0272924	607.9393511	1.523223148
9.705139037	-1.976177555	-5.840658296	10.36386489	0.849408803	926.251637	607.9720087	1.523510332
9.760706132	-1.997713723	-5.879209928	10.42661071	0.849799377	926.3591433	608.1300341	1.523291223
9.817061413	-2.01971807	-5.918389741	10.49030077	0.850198441	926.1624353	608.0754878	1.523104374
9.874796019	-2.041722416	-5.958259217	10.55537016	0.850597505	926.1743732	608.0387371	1.523216066
9.934304043	-2.063258584	-5.998781314	10.6220569	0.850988078	926.1266346	608.0221682	1.52317906
9.997654473	-2.08526293	-6.041458702	10.69274212	0.851387142	926.3018026	608.1525525	1.523140532
10.04892596	-2.106799099	-6.077862528	10.75119232	0.851777716	926.002337	607.9513567	1.52315202
10.10668027	-2.128335268	-6.117507767	10.81612536	0.852168289	926.1034205	608.0350002	1.523108736
10.16630652	-2.149871436	-6.158088978	10.88293033	0.852558862	926.1172672	608.1211577	1.522915714
10.22788353	-2.17234396	-6.200113745	10.95199818	0.852966417	925.9902543	608.0792301	1.522811845
10.27852447	-2.193411951	-6.235968208	11.00966178	0.8533485	925.7879994	607.9820228	1.522722654
10.3344561	-2.215416297	-6.274936197	11.0729282	0.853747564	925.8550743	607.9832371	1.522829936
10.38997393	-2.237420643	-6.313697287	11.13578081	0.854146628	925.7257634	608.0114725	1.52254654
10.44748193	-2.259424989	-6.353453461	11.2006236	0.854545692	925.7967083	607.9544808	1.522805963
10.50841854	-2.28049298	-6.394455762	11.26858287	0.854927775	925.3303675	607.8190298	1.52237808
10.57176897	-2.302965504	-6.437367239	11.33942414	0.85533533	925.3126386	607.8645452	1.522234922
10.62563162	-2.32496985	-6.475300734	11.40062157	0.855734394	925.0426243	607.7234434	1.522144051
10.68499186	-2.346506019	-6.515748937	11.46716053	0.856124967	925.0285584	607.7798088	1.521979745
10.74121906	-2.368042187	-6.554630622	11.53056645	0.85651554	924.7370644	607.6828081	1.521743008
10.79441174	-2.390514711	-6.592463227	11.59124998	0.856923095	924.7325859	607.6610733	1.521790068
10.84898375	-2.411582702	-6.630283228	11.65284465	0.857305178	924.4833212	607.6378911	1.521437907
10.90134884	-2.43311887	-6.667233858	11.71238847	0.857695751	924.692347	607.7386673	1.52152956
10.96598008	-2.455123217	-6.710551646	11.78435448	0.858094815	924.4607341	607.59078	1.521518701
11.03422711	-2.476191208	-6.755209159	11.85962418	0.858476898	923.9136344	607.3673555	1.52117763
11.0865922	-2.499131909	-6.792862055	11.91963617	0.858892944	924.0849344	607.4857555	1.521163132
