eps1        epsv      eps3             epsq       Void ratio    q           p          eta = q/p  
[%]         [%]       [%]              [%]        [%]           [kPa]       [kPa]      [-]

0	0	0	0	0.758169085	1.95482	100.27986	0.0195
0.026463332	0.020353205	-0.003055064	0.019678931	0.757811241	16.78462	105.24329	0.1595
0.047634299	0.035618109	-0.006008095	0.035761596	0.757542858	25.68085	108.14773	0.2375
0.082984889	0.051808159	-0.015588365	0.065715503	0.75725821	38.60473	112.48646	0.3432
0.087908369	0.049957867	-0.018975251	0.071255747	0.757290741	37.89443	112.25965	0.3376
0.088006839	0.047645003	-0.020180918	0.072125171	0.757331405	36.20352	111.66573	0.3242
0.089385413	0.05689646	-0.016244477	0.070419927	0.757168749	38.85544	112.61068	0.3450
0.124834473	0.075861947	-0.024486263	0.099547158	0.756835303	54.08600	117.64697	0.4597
0.166487118	0.09760287	-0.034442124	0.133952828	0.756453061	69.93648	122.98114	0.5687
0.209518338	0.116568357	-0.04647499	0.170662219	0.756119616	85.11078	127.97852	0.6650
0.250974044	0.132758407	-0.059107819	0.206721242	0.755834967	99.36824	132.73068	0.7486
0.294103733	0.146635592	-0.073734071	0.245225202	0.755590983	112.67657	137.20735	0.8212
0.345898748	0.15773734	-0.094080704	0.293319635	0.755395795	125.10373	141.31922	0.8853
0.39601978	0.167913943	-0.114052918	0.340048465	0.755216874	136.59491	145.16006	0.9410
0.4413158	0.176240254	-0.132537773	0.382569049	0.755070483	147.39858	148.78128	0.9907
0.495080208	0.181791128	-0.15664454	0.434483165	0.754972889	157.34776	152.07735	1.0347
0.537619079	0.185491711	-0.176063684	0.475788509	0.754907827	166.68914	155.20151	1.0740
0.586066128	0.185954284	-0.200055922	0.524081366	0.754899694	175.52004	158.11445	1.1101
0.644064728	0.185954284	-0.229055222	0.582079967	0.754899694	183.78843	160.94142	1.1420
0.682664815	0.183178847	-0.249742984	0.6216052	0.754948491	191.50518	163.54478	1.1710
0.737709327	0.179015691	-0.279346818	0.67803743	0.755021686	198.71294	165.89676	1.1978
0.784383923	0.170226807	-0.307078558	0.727641654	0.75517621	205.64770	168.17765	1.2228
0.844548854	0.16097535	-0.341786752	0.790890404	0.755338866	212.01059	170.24785	1.2453
0.892109676	0.149411029	-0.371349324	0.842306	0.755542186	218.09595	172.34747	1.2654
0.940359785	0.137384135	-0.401487825	0.894565073	0.755753639	223.84154	174.30349	1.2842
0.996290524	0.127670105	-0.434310209	0.953733822	0.755924428	229.24766	176.07516	1.3020
1.046017677	0.115643211	-0.465187233	1.00746994	0.756135881	234.45230	177.81012	1.3186
1.091609107	0.103153745	-0.494227681	1.057224525	0.756355467	239.37845	179.45234	1.3339
1.144979635	0.090201705	-0.527388965	1.1149124	0.756583186	244.10420	181.05770	1.3482
1.197956286	0.075861947	-0.561047169	1.17266897	0.756835303	248.56960	182.55621	1.3616
1.24984977	0.061522188	-0.594163791	1.229342374	0.757087421	252.94458	184.04482	1.3744
1.303811117	0.045332139	-0.629239489	1.288700404	0.757372069	257.11026	185.42350	1.3866
1.353144391	0.028679516	-0.662232437	1.343584553	0.75766485	261.03003	186.72046	1.3980
1.400606744	0.011101748	-0.694752498	1.396906161	0.757973897	264.89876	188.01004	1.4090
1.458506874	-0.007401166	-0.73295402	1.46097393	0.75829921	268.41334	189.13080	1.4192
1.502916669	-0.028216944	-0.765566806	1.512322316	0.758665186	272.08801	190.41642	1.4289
1.549394325	-0.04718243	-0.798288377	1.565121801	0.758998632	275.48756	191.61082	1.4377
1.608180682	-0.067998208	-0.838089445	1.630846751	0.759364608	278.78472	192.71999	1.4466
1.662535907	-0.088351414	-0.87544366	1.691986378	0.759722452	281.97503	193.84424	1.4546
1.717875828	-0.109167192	-0.91352151	1.754264892	0.760088428	284.82011	194.74174	1.4626
1.762285622	-0.131370688	-0.946828155	1.806075851	0.760478803	287.78452	195.74033	1.4702
1.812308184	-0.154961903	-0.983635044	1.863962152	0.760893577	290.57073	196.65911	1.4775
1.877593536	-0.179478264	-1.0285359	1.937419624	0.761324616	293.44791	197.62862	1.4848
1.924268131	-0.203532052	-1.063900091	1.992112148	0.761747522	296.07084	198.50285	1.4915
1.973207527	-0.227123267	-1.100165397	2.048915283	0.762162296	298.62692	199.33455	1.4981
2.032387763	-0.252102201	-1.142244982	2.11642183	0.762601468	301.03826	200.18918	1.5038
2.075714391	-0.277081134	-1.176397763	2.16807477	0.763040639	303.37018	200.93596	1.5098
2.129478799	-0.303447787	-1.216463293	2.230628061	0.76350421	305.73820	201.72554	1.5156
2.173790123	-0.32842672	-1.251108422	2.283265697	0.763943382	308.06939	202.55354	1.5209
2.229523923	-0.355718518	-1.29262122	2.348096762	0.764423218	310.22034	203.25004	1.5263
2.280235772	-0.38208517	-1.331160471	2.407597495	0.764886788	312.37678	204.02999	1.5310
2.328092002	-0.409839541	-1.368965772	2.464705183	0.765374757	314.39177	204.71218	1.5358
2.378409973	-0.437131339	-1.407770656	2.52412042	0.765854593	316.40643	205.39344	1.5405
2.420948845	-0.465810855	-1.44337985	2.57621913	0.766358827	318.38166	206.08238	1.5449
2.476485705	-0.494490372	-1.485488039	2.641315829	0.766863061	320.21626	206.70436	1.5492
2.528674599	-0.522707315	-1.525690957	2.70291037	0.767359163	322.06944	207.33197	1.5534
2.585097685	-0.551386832	-1.568242259	2.768893296	0.767863397	323.85639	207.91799	1.5576
2.637089639	-0.580991494	-1.609040567	2.830753471	0.768383897	325.48136	208.46952	1.5613
2.686324445	-0.611058729	-1.648691587	2.890010688	0.76891253	327.24354	209.09707	1.5650
2.736740885	-0.64205111	-1.689395997	2.950757922	0.769457429	328.88219	209.70450	1.5683
2.788338961	-0.671655772	-1.729997366	3.012224218	0.769977929	330.36732	210.15964	1.5720
2.834521208	-0.701260434	-1.767890821	3.068274686	0.770498429	331.98143	210.69743	1.5756
2.884839179	-0.732715387	-1.808777283	3.129077641	0.77105146	333.56305	211.28585	1.5787
2.937225012	-0.764632914	-1.850928963	3.192102649	0.771612624	334.95412	211.73934	1.5819
2.987542982	-0.796087867	-1.891815425	3.252905605	0.772165655	336.33239	212.20905	1.5849
3.033331351	-0.827542821	-1.930437086	3.309178958	0.772718687	337.69565	212.73448	1.5874
3.093791692	-0.858997774	-1.976394733	3.380124283	0.773271718	338.74213	213.09310	1.5896
3.143518845	-0.891377873	-2.017448359	3.440644803	0.773841015	340.00855	213.44513	1.5930
3.193147529	-0.922832827	-2.057990178	3.500758471	0.774394046	341.19163	213.75835	1.5962
3.24080682	-0.954750353	-2.097778587	3.559056938	0.77495521	342.79023	214.51388	1.5980
3.285905901	-0.988518171	-2.137212036	3.615411958	0.775548905	343.95802	214.86307	1.6008
3.339473369	-1.021360843	-2.180417106	3.679926984	0.776126335	345.12468	215.27220	1.6032
3.390677567	-1.054203515	-2.222440541	3.742078738	0.776703765	346.19459	215.60860	1.6057
3.449168515	-1.087046187	-2.268107351	3.811517244	0.777281195	347.32021	216.00405	1.6079
3.491707387	-1.121739151	-2.306723269	3.865620437	0.777891156	348.32660	216.34971	1.6100
3.542616175	-1.15735726	-2.349986717	3.928401929	0.778517382	349.39090	216.77541	1.6118
3.597660687	-1.19158765	-2.394624169	3.994856571	0.77911921	350.26579	217.07757	1.6136
3.655265409	-1.225818041	-2.440541725	4.063871423	0.779721038	351.26899	217.40201	1.6158
3.7006599	-1.258660713	-2.479660306	4.120213471	0.780298468	352.12414	217.69743	1.6175
3.760037075	-1.292891103	-2.526464089	4.191000776	0.780900296	352.95871	217.97570	1.6193
3.807991775	-1.328971785	-2.56848178	4.25098237	0.781534656	353.91037	218.32337	1.6210
3.860869956	-1.359964166	-2.610417061	4.314191344	0.782079554	354.76700	218.63927	1.6226
3.906855264	-1.394194557	-2.65052491	4.371586782	0.782681382	355.58039	218.85988	1.6247
3.96081661	-1.428424947	-2.694620779	4.436958259	0.78328321	356.07555	219.08599	1.6253
4.020193785	-1.463117911	-2.741655848	4.507899755	0.783893171	357.12121	219.40410	1.6277
4.064012762	-1.49873602	-2.781374391	4.563591435	0.784519398	357.83109	219.70161	1.6287
4.114724611	-1.533891556	-2.824308083	4.626021796	0.785137492	358.58006	219.96155	1.6302
4.169966062	-1.569509665	-2.869737864	4.693135951	0.785763718	359.20728	220.19103	1.6313
4.223828939	-1.604202628	-2.914015784	4.758563149	0.786373679	359.84141	220.46347	1.6322
4.278676512	-1.639820738	-2.959248625	4.825283424	0.786999906	360.58677	220.78284	1.6332
4.33480419	-1.675438847	-3.005121518	4.893283805	0.787626132	361.11392	220.92771	1.6345
4.380887967	-1.711519529	-3.046203748	4.951394477	0.788260492	361.70361	221.11472	1.6358
4.431205938	-1.746212492	-3.088709215	5.013276769	0.788870453	362.20744	221.33343	1.6365
4.488318312	-1.782293174	-3.135305743	5.082416037	0.789504812	362.86283	221.59263	1.6375
4.545430686	-1.818373856	-3.181902271	5.151555305	0.790139172	363.34239	221.75248	1.6385
4.589151193	-1.853529392	-3.221340293	5.206994324	0.790757265	363.87500	221.88954	1.6399
4.641930904	-1.89053522	-3.266233062	5.272109311	0.79140789	364.43847	222.15874	1.6404
4.692938162	-1.925690756	-3.309314459	5.334835081	0.792025984	364.83108	222.28977	1.6412
4.737938774	-1.961771438	-3.349855106	5.391862587	0.792660344	365.39769	222.49896	1.6422
4.786090414	-1.99785212	-3.391971267	5.45204112	0.793294703	365.75014	222.65751	1.6427
4.831386434	-2.033932802	-3.432659618	5.509364035	0.793929062	366.27683	222.80254	1.6440
4.885741659	-2.070013484	-3.477877572	5.575746154	0.794563422	366.75831	223.03405	1.6444
4.949057619	-2.106094166	-3.527575892	5.651089007	0.795197781	367.03094	223.11439	1.6450
4.998587833	-2.142174848	-3.57038134	5.712646115	0.795832141	367.36493	223.20556	1.6459
5.045754776	-2.178718103	-3.612236439	5.771994143	0.796474633	367.84178	223.33431	1.6470
5.100110001	-2.21572393	-3.657916965	5.838684644	0.797125258	368.23348	223.50577	1.6475
5.153185121	-2.251804612	-3.702494866	5.903786658	0.797759617	368.45095	223.62936	1.6476
5.197988793	-2.288347867	-3.74316833	5.960771416	0.798402109	368.75253	223.71944	1.6483
5.253722593	-2.325353695	-3.789538144	6.028840491	0.799052734	369.12679	223.85456	1.6490
5.301086475	-2.361896949	-3.831491712	6.088385458	0.799695227	369.39856	223.97592	1.6493
5.355244761	-2.398902777	-3.877073769	6.15487902	0.800345852	369.68654	224.09199	1.6497
5.405858141	-2.435908605	-3.920883373	6.217827675	0.800996477	369.87908	224.20703	1.6497
5.45903173	-2.472914432	-3.965973081	6.283336541	0.801647102	370.14211	224.30498	1.6502
5.508857353	-2.509457687	-4.00915752	6.345343249	0.802289594	370.34694	224.34315	1.6508
5.562917169	-2.546000942	-4.054459055	6.41158415	0.802932086	370.50745	224.43738	1.6508
5.613432079	-2.583469342	-4.098450711	6.474588526	0.803590844	370.74982	224.52854	1.6512
5.664242398	-2.620012597	-4.142127498	6.53757993	0.804233336	370.91267	224.57262	1.6516
5.71170475	-2.657018425	-4.184361587	6.597377558	0.804883961	371.16722	224.68807	1.6519
5.765469157	-2.69356168	-4.229515418	6.66332305	0.805526453	371.26324	224.68915	1.6523
5.821006017	-2.73103008	-4.276018049	6.731349377	0.806185211	371.40215	224.76622	1.6524
5.869846944	-2.768498481	-4.319172712	6.792679771	0.806843969	371.50411	224.85032	1.6522
5.923315942	-2.805966881	-4.364641412	6.858638236	0.807502727	371.56042	224.94060	1.6518
5.972353808	-2.842972709	-4.407663259	6.920011378	0.808153352	371.78741	224.99643	1.6524
6.023262597	-2.879515964	-4.45138928	6.983101251	0.808795844	371.83821	224.98291	1.6527
6.077322413	-2.916521791	-4.496922102	7.049496343	0.809446469	372.00827	225.11077	1.6526
6.131579168	-2.953990192	-4.54278468	7.116242565	0.810105227	372.02359	225.11605	1.6526
6.179533868	-2.990996019	-4.585264944	7.176532541	0.810755852	372.11859	225.18852	1.6525
6.234184502	-3.02846442	-4.631324461	7.243672642	0.81141461	372.22934	225.21540	1.6528
6.288638196	-3.065007675	-4.676822936	7.310307421	0.812057102	372.17467	225.19726	1.6527
6.342008725	-3.103401221	-4.722704973	7.376475799	0.812732125	372.36603	225.31108	1.6527
6.393015983	-3.139481903	-4.766248943	7.439509951	0.813366485	372.27266	225.34134	1.6520
6.44185691	-3.176487731	-4.80917232	7.500686153	0.81401711	372.37057	225.37422	1.6522
6.490500897	-3.213956131	-4.852228514	7.561819608	0.814675868	372.37850	225.32634	1.6526
6.537077023	-3.250961959	-4.894019491	7.620731009	0.815326493	372.43138	225.33434	1.6528
6.586705707	-3.288430359	-4.937568033	7.68284916	0.815985251	372.54961	225.40378	1.6528
6.636137451	-3.32589876	-4.981018105	7.744770371	0.816644008	372.46484	225.48760	1.6518
6.681630411	-3.36336716	-5.022498786	7.802752798	0.817302766	372.62512	225.50062	1.6524
6.743173917	-3.400835561	-5.072004739	7.876785771	0.817961524	372.58838	225.49833	1.6523
6.797430673	-3.437378815	-5.117404744	7.943223611	0.818604016	372.58367	225.53651	1.6520
6.843711389	-3.474847216	-5.159279303	8.001993795	0.819262774	372.56313	225.55039	1.6518
6.895900283	-3.511390471	-5.203645377	8.066363773	0.819905266	372.55717	225.53886	1.6519
6.941787121	-3.548396298	-5.24509171	8.124585887	0.820555891	372.53047	225.54033	1.6517
6.996437755	-3.58447698	-5.290457368	8.191263415	0.821190251	372.54197	225.56457	1.6516
7.044195516	-3.621020235	-5.332607875	8.251202261	0.821832743	372.53514	225.57225	1.6515
7.099141558	-3.65756349	-5.378352524	8.318329388	0.822475235	372.51670	225.59646	1.6513
7.155367706	-3.694106745	-5.424737225	8.386736621	0.823117727	372.36141	225.57539	1.6507
7.201648423	-3.729262281	-5.465455352	8.44473585	0.823735821	372.29460	225.57394	1.6504
7.25285262	-3.765805536	-5.509329078	8.508121132	0.824378313	372.23782	225.51436	1.6506
7.303564469	-3.802811363	-5.553187916	8.571168257	0.825028938	372.21601	225.53762	1.6504
7.355359484	-3.838892045	-5.597125765	8.634990166	0.825663298	372.08816	225.52553	1.6499
7.411782571	-3.875897873	-5.643840222	8.703748529	0.826313923	372.17357	225.58428	1.6498
7.464660752	-3.911053409	-5.68785708	8.768345221	0.826932017	372.02675	225.56603	1.6493
7.514584844	-3.947134091	-5.730859468	8.830296208	0.827566376	371.91448	225.52885	1.6491
7.562736483	-3.983214773	-5.772975628	8.890474741	0.828200735	371.76571	225.52000	1.6485
7.625757034	-4.019295455	-5.822526245	8.965522186	0.828835095	371.65258	225.51257	1.6480
7.670856116	-4.05583871	-5.863347413	9.022802352	0.829477587	371.65303	225.54300	1.6478
7.723931235	-4.091919392	-5.907925314	9.087904366	0.830111946	371.51868	225.49854	1.6475
7.777301764	-4.127537501	-5.952419633	9.153147598	0.830738173	371.42794	225.46854	1.6474
7.831952398	-4.163618183	-5.99778529	9.219825126	0.831372532	371.21769	225.38793	1.6470
7.888178545	-4.199236292	-6.043707419	9.287923976	0.831998759	371.18425	225.42812	1.6466
7.935542428	-4.235316974	-6.085429701	9.347314753	0.832633118	371.03770	225.32891	1.6466
7.985663459	-4.27047251	-6.128067985	9.409154296	0.833251212	370.82285	225.24701	1.6463
8.039329397	-4.306090619	-6.172710008	9.474692937	0.833877439	370.85934	225.32056	1.6459
8.080095816	-4.342171301	-6.211133559	9.52748625	0.834511798	370.68735	225.26257	1.6456
8.134844919	-4.377326838	-6.256085878	9.593953865	0.835129892	370.57415	225.18444	1.6456
8.188412387	-4.412482374	-6.30044738	9.659239845	0.835747986	370.40534	225.14865	1.6452
8.242669142	-4.448100483	-6.345384813	9.725369303	0.836374212	370.21483	225.18710	1.6440
8.297418246	-4.482793446	-6.390105846	9.791682728	0.836984173	370.08563	225.09310	1.6441
8.34931173	-4.517948983	-6.433630356	9.855294724	0.837602267	369.82039	224.95400	1.6440
8.403962364	-4.552641946	-6.478302155	9.921509679	0.838212228	369.78562	225.03407	1.6432
8.455068092	-4.588260055	-6.521664073	9.98448811	0.838838454	369.52191	224.95621	1.6426
8.500561052	-4.622953019	-6.561757035	10.04154539	0.839448415	369.53222	224.98013	1.6425
8.553045354	-4.657645982	-6.605345668	10.10559401	0.840058376	369.23201	224.86994	1.6420
8.603855673	-4.692801518	-6.648328595	10.16812285	0.84067647	369.05659	224.85154	1.6413
8.652893539	-4.727494482	-6.69019401	10.22872503	0.841286431	368.77903	224.82008	1.6403
8.703309979	-4.761724872	-6.732517426	10.2905516	0.841888259	368.64254	224.76478	1.6401
8.747916712	-4.796417836	-6.772167274	10.34672266	0.84249822	368.54479	224.73187	1.6399
8.809558688	-4.830185653	-6.819872171	10.41962057	0.843091915	368.26226	224.65835	1.6392
8.863224626	-4.86534119	-6.864282908	10.48500502	0.843710009	368.04113	224.50351	1.6394
8.915019641	-4.899109007	-6.907064324	10.54805598	0.844303705	367.72204	224.48873	1.6380
8.967602413	-4.933339398	-6.950470905	10.61204888	0.844905533	367.59346	224.51655	1.6373
9.019791306	-4.967569789	-6.993680547	10.6756479	0.845507361	367.39852	224.42170	1.6371
9.070601625	-5.001800179	-7.036200902	10.73786835	0.846109189	367.09904	224.32162	1.6365
9.124366032	-5.035567997	-7.079967015	10.8028887	0.846702884	366.89940	224.33654	1.6355
9.169662053	-5.069335815	-7.119498934	10.85944066	0.84729658	366.61557	224.24201	1.6349
9.219980024	-5.103103632	-7.161541828	10.92101457	0.847890275	366.53123	224.24434	1.6345
9.26635921	-5.13687145	-7.20161533	10.97864969	0.84848397	366.26850	224.15693	1.6340
9.326622612	-5.170176695	-7.248399653	11.05001484	0.849069533	366.05264	224.06473	1.6337
9.379599262	-5.204407085	-7.292003174	11.11440162	0.849671361	365.77870	224.01415	1.6328
9.43138443	-5.237249758	-7.334317094	11.17713435	0.850248791	365.48083	223.88450	1.6325
9.483573324	-5.270555002	-7.377064163	11.24042499	0.850834353	365.23033	223.83153	1.6317
9.536490892	-5.303860247	-7.42017557	11.30444431	0.851419916	364.94337	223.76640	1.6309
9.583549519	-5.336702919	-7.460126219	11.36245049	0.851997345	364.75731	223.69450	1.6306
9.638505408	-5.369545591	-7.5040255	11.42835394	0.852574775	364.45553	223.66500	1.6295
9.685101228	-5.403313409	-7.544207319	11.4862057	0.853168471	364.18441	223.57463	1.6289
9.727167446	-5.435693508	-7.581430477	11.53906528	0.853737767	363.89461	223.50807	1.6281
9.788317073	-5.468073607	-7.62819534	11.61100828	0.854307064	363.62847	223.44931	1.6273
9.839432648	-5.501378852	-7.67040575	11.6732256	0.854892627	363.40799	223.40699	1.6267
9.894270374	-5.533758952	-7.714014663	11.73885669	0.855461924	363.00873	223.24412	1.6261
9.941998594	-5.565676478	-7.753837536	11.79722409	0.856023088	362.76514	223.21361	1.6252
9.997821016	-5.598056577	-7.797938797	11.86383988	0.856592385	362.50412	223.09624	1.6249
10.05081736	-5.629974103	-7.840395732	11.92747539	0.857153549	362.23116	223.05602	1.6239
10.09792522	-5.66189163	-7.879908426	11.98522243	0.857714713	361.99033	222.95567	1.6236
10.15271371	-5.694271729	-7.923492721	12.05080429	0.85828401	361.64227	222.85997	1.6227
10.20145617	-5.72526411	-7.96336014	12.10987754	0.858828908	361.43978	222.80260	1.6222
10.25116363	-5.757644209	-8.004403919	12.17037837	0.859398205	361.02953	222.70592	1.6211
10.29220576	-5.789099162	-8.040652463	12.22190548	0.859951236	360.80689	222.70329	1.6201
10.35128753	-5.820554116	-8.085920823	12.29147223	0.860504268	360.42894	222.57772	1.6193
10.40414602	-5.851546496	-8.127846256	12.35466151	0.861049166	360.27649	222.52666	1.6190
10.46087436	-5.883926596	-8.172400477	12.42218322	0.861618463	359.96308	222.47345	1.6180
10.50928202	-5.914456403	-8.211869211	12.48076749	0.862155229	359.42517	222.26378	1.6171
10.56313505	-5.945911357	-8.254523203	12.5451055	0.86270826	359.22605	222.19749	1.6167
10.61170026	-5.97736631	-8.294533285	12.6041557	0.863261291	358.61926	222.00559	1.6154
10.67802939	-6.008358691	-8.343194041	12.68081562	0.86380619	358.17423	221.86745	1.6144
10.72944037	-6.039351072	-8.384395723	12.7425574	0.864351088	357.84699	221.78890	1.6135
10.78340172	-6.06988088	-8.4266413	12.80669535	0.864887854	357.44550	221.66519	1.6125
10.83605342	-6.100410687	-8.468232054	12.86952365	0.865424619	357.23037	221.56328	1.6123
10.87632749	-6.130477922	-8.503402707	12.91982013	0.865953252	356.85289	221.52879	1.6109
10.92683255	-6.160545157	-8.543688856	12.98034761	0.866481885	356.57427	221.41567	1.6104
10.9762446	-6.191074965	-8.583659785	13.03993626	0.867018651	356.20023	221.30111	1.6096
11.02603084	-6.220679627	-8.623355233	13.09959072	0.867539151	355.89362	221.21923	1.6088
11.07105115	-6.250746862	-8.660899004	13.15463343	0.868067783	355.65380	221.12917	1.6084
