eps1        epsv      eps3             epsq       Void ratio    q           p          eta = q/p  
[%]         [%]       [%]              [%]        [%]           [kPa]       [kPa]      [-]

-0.00036077	0	0.000180385	-0.00036077	0.752638972	2.50	402.27	0.01
0.000733045	0.000930112	9.85332E-05	0.000423008	0.752622671	3.82506742	402.7924195	0.009496374
0.011752652	0.004650559	-0.003551047	0.010202466	0.752557465	9.351895403	404.4015845	0.023125269
0.042623841	0.015346844	-0.013638498	0.037508226	0.752369998	28.23675403	410.6558893	0.068760134
0.098309507	0.038134583	-0.030087462	0.085597979	0.751970611	68.5298314	424.1068291	0.161586248
0.153995173	0.062782545	-0.045606314	0.133067658	0.751538621	111.4367081	438.3891254	0.254195877
0.209680839	0.090220843	-0.059729998	0.179607225	0.751057727	154.3011116	452.6977479	0.340847977
0.265366505	0.116263972	-0.074551266	0.226611848	0.750601285	197.168502	467.04744	0.422159475
0.321052171	0.142307102	-0.089372535	0.273616471	0.750144843	238.4292072	480.8509574	0.495848461
0.376737837	0.16742012	-0.104658859	0.320931131	0.749704702	279.0113678	494.2875833	0.564471731
0.432423504	0.188812691	-0.121805406	0.36948594	0.749329768	315.6251544	506.5329088	0.623108882
0.48810917	0.211135374	-0.138486898	0.417730712	0.748938531	350.9151612	518.3363184	0.677002843
0.543794836	0.232062889	-0.155865974	0.46644054	0.748571748	386.1759365	530.1004412	0.728495784
0.599480502	0.251595236	-0.173942633	0.515615423	0.748229416	420.6555436	541.6035185	0.776685397
0.655166168	0.269732416	-0.192716876	0.565255363	0.747911537	453.6531933	552.5522941	0.821014044
0.710851834	0.288799707	-0.211026063	0.614585265	0.747577356	485.2304369	563.11787	0.861685382
0.7665375	0.303681496	-0.231428002	0.665310335	0.747316532	515.3882391	573.0798737	0.899330552
0.822223167	0.31902834	-0.251597413	0.715880387	0.747047557	544.7742513	582.8241141	0.934714673
0.877908833	0.330654737	-0.273627048	0.767690587	0.746843789	572.5918171	592.167811	0.966941814
0.933594499	0.343211246	-0.295191626	0.81919075	0.746623718	599.2420861	600.818615	0.997376032
0.989280165	0.3553027	-0.316988733	0.870845932	0.746411799	624.8931496	609.3690515	1.025475692
1.044965831	0.365068873	-0.339948479	0.923276207	0.746240633	649.3592825	617.5345502	1.051535145
1.100651497	0.372974823	-0.363838337	0.976326556	0.74610207	672.7930123	625.3154304	1.075925812
1.156337163	0.380415718	-0.387960723	1.029531924	0.745971658	695.2042006	632.8259005	1.098571029
1.21202283	0.385531332	-0.413245749	1.083512385	0.745882	716.9789088	640.1448626	1.12002603
1.267708496	0.391577059	-0.438065718	1.137182809	0.74577604	737.4190872	646.9985754	1.139753804
1.323394162	0.39483245	-0.464280856	1.191783345	0.745718985	757.4937657	653.7006659	1.158777718
1.379079828	0.398087841	-0.490495993	1.246383881	0.74566193	776.5027485	659.9455765	1.17661634
1.434765494	0.399948065	-0.517408715	1.301449472	0.745629327	795.2066538	666.2411016	1.193571894
1.49045116	0.400878177	-0.544786492	1.356825101	0.745613025	812.7399754	672.0750931	1.209299353
1.546136826	0.400413121	-0.572861853	1.412665786	0.745621176	829.9687246	677.8584935	1.224398208
1.601822493	0.399948065	-0.600937214	1.468506471	0.745629327	846.2845261	683.307051	1.238512796
1.657508159	0.39715773	-0.630175214	1.525122249	0.745678231	861.9909908	688.5430313	1.251905766
1.713193825	0.392972227	-0.660110799	1.582203083	0.745751588	877.4182314	693.6749958	1.264883752
1.768879491	0.387391556	-0.690743967	1.639748972	0.745849397	892.0214668	698.5632289	1.276937333
1.824565157	0.379950662	-0.722307248	1.697914936	0.745979809	906.4157947	703.1584262	1.289063404
1.880250823	0.372044712	-0.754103056	1.756235919	0.746118372	919.8719768	707.7355653	1.299739651
1.935936489	0.362278538	-0.786828976	1.815176977	0.746289537	933.5397186	712.2403002	1.310708926
1.991622155	0.353442476	-0.81908984	1.873807997	0.746444402	946.3332737	716.5765676	1.320631062
2.047307822	0.345536526	-0.850885648	1.93212898	0.746582964	958.7975232	720.6901774	1.330387944
2.102993488	0.337630576	-0.882681456	1.990449963	0.746721527	971.0969828	724.8508053	1.33971981
2.158679154	0.32925957	-0.914709792	2.048925964	0.746868241	982.7838106	728.7468245	1.348594296
2.21436482	0.320423508	-0.946970656	2.107556984	0.747023105	994.0067584	732.4667451	1.357067423
2.270050486	0.31112239	-0.979464048	2.166343023	0.74718612	1004.938812	736.212055	1.36501271
2.325736152	0.300891161	-1.012422496	2.225439099	0.747365437	1015.944511	739.8305903	1.37321236
2.381421818	0.290659931	-1.045380944	2.284535175	0.747544753	1025.976176	743.1646036	1.38055038
2.437107485	0.278103422	-1.079502031	2.344406344	0.747764823	1036.3869	746.654677	1.388040458
2.492793151	0.266477025	-1.113158063	2.403967476	0.747968592	1045.859477	749.8735028	1.39471454
2.548478817	0.25345546	-1.147511679	2.463993664	0.748196813	1055.744897	753.1177097	1.40183252
2.604164483	0.241829063	-1.18116771	2.523554795	0.748400582	1064.993304	756.2614839	1.408234224
2.659850149	0.228342442	-1.215753854	2.583736002	0.748636954	1074.012198	759.267864	1.41453662
2.715535815	0.213925709	-1.250805053	2.644227246	0.748889627	1082.689233	762.1296821	1.420610244
2.771221481	0.199508977	-1.285856252	2.704718489	0.7491423	1090.961664	764.7663629	1.426529351
2.826907148	0.185092244	-1.320907452	2.765209733	0.749394974	1098.854774	767.3566697	1.43200003
2.882592814	0.1697454	-1.356423707	2.826011014	0.749663948	1107.042813	770.0758949	1.437576244
2.93827848	0.154398555	-1.391939962	2.886812295	0.749932923	1114.778789	772.7154436	1.442676988
2.993964146	0.138121599	-1.427921273	2.947923613	0.750218199	1122.418981	775.2923733	1.447736389
3.049649812	0.121844643	-1.463902585	3.009034931	0.750503476	1129.949505	777.8331569	1.452688786
3.105335478	0.105102631	-1.500116424	3.070301268	0.750796903	1137.024411	780.181584	1.457384325
3.161021144	0.087430507	-1.536795319	3.131877642	0.751106631	1144.369161	782.5889401	1.462286397
3.216706811	0.070688495	-1.573009158	3.193143979	0.751400058	1150.934625	784.8381539	1.466461103
3.272392477	0.053016371	-1.609688053	3.254720353	0.751709787	1157.794403	787.2061245	1.470763967
3.328078143	0.03394908	-1.647064531	3.316761783	0.752043968	1164.019732	789.2514455	1.474840165
3.383763809	0.0158119	-1.683975954	3.378493176	0.752361847	1170.609231	791.4680229	1.479035409
3.439449475	-0.003255391	-1.721352433	3.440534606	0.752696028	1176.81321	793.5161018	1.483036333
3.495135141	-0.022787739	-1.75896144	3.502731054	0.753038359	1182.637844	795.4576465	1.486738922
3.550820807	-0.042785142	-1.796802975	3.565082521	0.753388841	1188.47111	797.4427168	1.490352956
3.606506474	-0.062782545	-1.834644509	3.627433989	0.753739324	1193.979889	799.2688552	1.493840128
3.66219214	-0.08371006	-1.8729511	3.690095493	0.754106107	1199.685352	801.0383654	1.497662789
3.717877806	-0.103707463	-1.910792635	3.75244696	0.75445659	1204.595202	802.736446	1.500611076
3.773563472	-0.124634978	-1.949099225	3.815108465	0.754823374	1210.281218	804.6526008	1.504104028
3.829249138	-0.144632382	-1.98694076	3.877459932	0.755173856	1215.052443	806.1313501	1.507263603
3.884934804	-0.166490008	-2.025712406	3.940431474	0.755556941	1220.298319	807.9601234	1.510344736
3.94062047	-0.187882579	-2.064251525	4.003247997	0.755931876	1225.179379	809.6990483	1.513129331
3.996306136	-0.20927515	-2.102790643	4.06606452	0.75630681	1230.027527	811.2747776	1.51616636
4.051991803	-0.230667721	-2.141329762	4.128881043	0.756681745	1234.698648	812.8623449	1.518951709
4.107677469	-0.252990404	-2.180333936	4.192007603	0.757072981	1239.205662	814.4458149	1.521532359
4.163363135	-0.275778143	-2.219570639	4.255289182	0.757472368	1243.53058	815.9273644	1.524070198
4.219048801	-0.298565881	-2.258807341	4.318570761	0.757871754	1247.967203	817.4670467	1.526626924
4.274734467	-0.32135362	-2.298044043	4.38185234	0.758271141	1251.964346	818.7793496	1.529061946
4.330420133	-0.34507147	-2.337745802	4.445443957	0.758686829	1256.181534	820.2767421	1.531411864
4.386105799	-0.367859209	-2.376982504	4.508725536	0.759086216	1260.211004	821.5594187	1.533925575
4.441791466	-0.390646947	-2.416219206	4.572007115	0.759485603	1263.492059	822.6830567	1.535818744
4.497477132	-0.415294909	-2.456386021	4.635908768	0.759917593	1267.960724	824.1823226	1.538446881
4.553162798	-0.438547704	-2.495855251	4.699345366	0.76032513	1271.341128	825.2995769	1.540460171
4.608848464	-0.463660722	-2.536254593	4.763402038	0.760765271	1274.738885	826.1082087	1.543065269
4.66453413	-0.488308684	-2.576421407	4.827303691	0.761197261	1278.040397	827.3099226	1.544814539
4.720219796	-0.51249159	-2.616355693	4.891050326	0.7616211	1281.626672	828.5659917	1.546800961
4.775905462	-0.538069664	-2.656987563	4.955262017	0.762069391	1284.760008	829.7021	1.54845939
4.831591129	-0.562717626	-2.697154377	5.019163671	0.762501381	1288.136298	830.8478539	1.550387705
4.887276795	-0.587365589	-2.737321192	5.083065324	0.762933371	1291.220904	831.865689	1.552198776
4.942962461	-0.612013551	-2.777488006	5.146966978	0.76336536	1294.038258	832.8461109	1.553754338
4.998648127	-0.63805668	-2.818352404	5.211333687	0.763821802	1297.400406	833.956788	1.555716585
5.054333793	-0.662704643	-2.858519218	5.275235341	0.764253792	1299.944943	834.8454511	1.557108494
5.110019459	-0.688747772	-2.899383616	5.33960205	0.764710234	1303.175635	835.9829922	1.558854243
5.165705125	-0.714790902	-2.940248014	5.403968759	0.765166676	1305.666843	836.7938911	1.560320716
5.221390792	-0.741299088	-2.98134494	5.468490488	0.765631269	1308.429904	837.6437364	1.562036278
5.277076458	-0.766877162	-3.02197681	5.532702178	0.76607956	1310.679939	838.4541462	1.56321004
5.332762124	-0.794315459	-3.063538792	5.597533944	0.766560455	1313.702257	839.4924402	1.564876816
5.38844779	-0.820358589	-3.10440319	5.661900653	0.767016897	1315.935355	840.2268492	1.566166751
5.444133456	-0.847331831	-3.145732643	5.7265774	0.76748964	1318.268886	841.0545601	1.567399963
5.499819122	-0.874305072	-3.187062097	5.791254146	0.767962384	1320.267872	841.5800146	1.568796607
5.555504788	-0.901278314	-3.228391551	5.855930893	0.768435127	1322.144624	842.1038147	1.570049442
5.611190454	-0.927321444	-3.269255949	5.920297602	0.768891569	1324.568977	842.9832712	1.571287381
5.666876121	-0.954294685	-3.310585403	5.984974349	0.769364313	1326.53001	843.7579909	1.572168826
5.722561787	-0.981732983	-3.352147385	6.049806114	0.769845207	1328.831757	844.5466301	1.573426155
5.778247453	-1.008241169	-3.393244311	6.114327842	0.7703098	1330.67213	845.0887488	1.574594541
5.833933119	-1.036609578	-3.435271348	6.179469645	0.770806996	1333.091766	845.986547	1.575783647
5.889618785	-1.064047875	-3.47683333	6.24430141	0.77128789	1334.770101	846.576191	1.576668604
5.945304451	-1.091486173	-3.518395312	6.309133176	0.771768784	1336.537598	847.1760516	1.57763855
6.000990117	-1.11892447	-3.559957294	6.373964941	0.772249679	1338.184006	847.6841244	1.578635211
6.056675784	-1.146827824	-3.601751804	6.438951725	0.772738724	1339.936616	848.3296278	1.579499964
6.11236145	-1.175196233	-3.643778841	6.504093527	0.773235919	1341.445698	848.792007	1.580417448
6.168047116	-1.20263453	-3.685340823	6.568925293	0.773716814	1342.986373	849.2853234	1.581313531
6.223732782	-1.23100294	-3.727367861	6.634067095	0.77421401	1344.53391	849.8419809	1.582098719
6.279418448	-1.258441237	-3.768929843	6.698898861	0.774694904	1345.927079	850.3366515	1.582816731
6.335104114	-1.287274702	-3.811189408	6.764195682	0.77520025	1347.437177	850.7991236	1.58373127
6.39078978	-1.315178056	-3.852983918	6.829182466	0.775689295	1348.607705	851.3007945	1.584172966
6.446475447	-1.344011521	-3.895243484	6.894479287	0.776194642	1349.878276	851.4412585	1.585403882
6.502161113	-1.371914874	-3.937037993	6.959466071	0.776683687	1350.787161	851.8050281	1.585793834
6.557846779	-1.400748339	-3.979297559	7.024762892	0.777189034	1352.212702	852.3810904	1.586394533
6.613532445	-1.429116749	-4.021324597	7.089904695	0.777686229	1353.178289	852.7747018	1.586794597
6.669218111	-1.457950214	-4.063584162	7.155201516	0.778191576	1354.619486	853.1945388	1.58770295
6.724903777	-1.485853567	-4.105378672	7.2201883	0.778680621	1355.353943	853.4285805	1.588128138
6.780589443	-1.515152088	-4.147870766	7.285640139	0.779194118	1356.758598	853.9582628	1.58878795
6.83627511	-1.543055442	-4.189665276	7.350626923	0.779683163	1357.533131	854.2567605	1.589139464
6.891960776	-1.571888907	-4.231924841	7.415923745	0.78018851	1358.545575	854.655378	1.589582901
6.947646442	-1.601187428	-4.274416935	7.481375584	0.780702007	1359.709511	855.0024626	1.590298941
7.003332108	-1.629555837	-4.316443972	7.546517387	0.781199203	1360.30815	855.2226609	1.590589459
7.059017774	-1.658389302	-4.358703538	7.611814208	0.78170455	1361.265278	855.5418675	1.591114742
7.11470344	-1.687222767	-4.400963104	7.677111029	0.782209896	1361.898267	855.8133441	1.591349652
7.170389106	-1.716056232	-4.443222669	7.742407851	0.782715243	1362.941063	856.2114658	1.591827624
7.226074773	-1.744889698	-4.485482235	7.807704672	0.783220589	1363.660131	856.4306671	1.59225981
7.281760439	-1.774188219	-4.527974329	7.873156512	0.783734086	1364.37025	856.7390403	1.592515557
7.337446105	-1.80348674	-4.570466422	7.938608351	0.784247584	1364.963412	856.8559569	1.592990515
7.393131771	-1.831855149	-4.61249346	8.003750154	0.78474478	1365.201285	856.7526602	1.593460224
7.448817437	-1.861618726	-4.655218081	8.069357012	0.785266428	1365.464211	856.8815241	1.593527428
7.504503103	-1.891382303	-4.697942703	8.134963871	0.785788076	1365.975861	857.102679	1.593713209
7.560188769	-1.920215768	-4.740202269	8.200260692	0.786293422	1366.611434	857.3551847	1.593985152
7.615874435	-1.949049233	-4.782461834	8.265557513	0.786798769	1366.925967	857.4390491	1.594196076
7.671560102	-1.97881281	-4.825186456	8.331164372	0.787320417	1367.589643	857.7422265	1.594406339
7.727245768	-2.007646275	-4.867446021	8.396461193	0.787825763	1367.786295	857.8984559	1.594345211
7.782931434	-2.036944796	-4.909938115	8.461913033	0.788339261	1368.428629	858.1231803	1.594676219
7.8386171	-2.065313206	-4.951965153	8.527054835	0.788836456	1368.60483	858.1820781	1.594772095
7.894302766	-2.095076782	-4.994689774	8.592661694	0.789358105	1369.10025	858.38803	1.594966614
7.949988432	-2.123910248	-5.03694934	8.657958515	0.789863451	1369.085376	858.4029861	1.594921498
8.005674098	-2.153208769	-5.079441434	8.723410355	0.790376948	1369.424521	858.5972482	1.594955637
8.061359765	-2.182972346	-5.122166055	8.789017213	0.790898596	1369.574664	858.6174251	1.595093023
8.117045431	-2.212270867	-5.164658149	8.854469053	0.791412094	1369.887242	858.6812978	1.595338394
8.172731097	-2.241569388	-5.207150242	8.919920893	0.791925591	1369.904693	858.6974817	1.595328649
8.228416763	-2.270867909	-5.249642336	8.985372733	0.792439088	1369.87558	858.6871213	1.595313993
8.284102429	-2.301096542	-5.292599485	9.05113461	0.792968887	1369.742561	858.4911308	1.595523253
8.339788095	-2.329464951	-5.334626523	9.116276412	0.793466083	1369.116027	858.333219	1.595086846
8.395473761	-2.359228528	-5.377351145	9.181883271	0.793987731	1369.683573	858.563295	1.595320439
8.451159428	-2.387596937	-5.419378182	9.247025073	0.794484927	1369.63882	858.5580884	1.595277988
8.506845094	-2.416895458	-5.461870276	9.312476913	0.794998424	1369.916606	858.7214488	1.595297996
8.56253076	-2.445728923	-5.504129842	9.377773734	0.795503771	1369.683314	858.6442587	1.595169711
8.618216426	-2.475027444	-5.546621935	9.443225574	0.796017268	1369.756125	858.6177599	1.595303741
8.673902092	-2.503860909	-5.588881501	9.508522395	0.796522614	1369.744067	858.7150328	1.595108989
8.729587758	-2.532694375	-5.631141066	9.573819216	0.797027961	1369.57413	858.679367	1.594977337
8.785273424	-2.562457951	-5.673865688	9.639426075	0.797549609	1369.21199	858.5383296	1.594817543
8.840959091	-2.591291417	-5.716125254	9.704722896	0.798054956	1369.062151	858.5392344	1.594641335
8.896644757	-2.620589938	-5.758617347	9.770174736	0.798568453	1369.01631	858.5041222	1.594653159
8.952330423	-2.648958347	-5.800644385	9.835316538	0.799065649	1368.78107	858.4142758	1.594546024
9.008016089	-2.67918698	-5.843601534	9.901078416	0.799595447	1368.764663	858.4898567	1.594386529
9.063701755	-2.707090333	-5.885396044	9.966065199	0.800084493	1368.199898	858.3633118	1.593963628
9.119387421	-2.735923798	-5.92765561	10.03136202	0.800589839	1368.088585	858.2551142	1.594034876
9.175073087	-2.764757263	-5.969915175	10.09665884	0.801095186	1367.354775	857.980558	1.593689696
9.230758753	-2.79684612	-6.013802437	10.16304079	0.801657587	1366.976472	857.8848201	1.593426577
9.28644442	-2.825214529	-6.055829474	10.2281826	0.802154783	1366.469602	857.7469642	1.593091738
9.342130086	-2.853582938	-6.097856512	10.2933244	0.802651979	1366.161272	857.6134967	1.592980145
9.397815752	-2.882416403	-6.140116078	10.35862122	0.803157326	1365.580553	857.4815518	1.592548027
9.453501418	-2.910319757	-6.181910587	10.423608	0.803646371	1365.254659	857.3425574	1.592426093
9.509187084	-2.939153222	-6.224170153	10.48890482	0.804151717	1364.959656	857.2747499	1.592207931
9.56487275	-2.967056575	-6.265964663	10.55389161	0.804640762	1364.25711	857.0915011	1.591728664
9.620558416	-2.996355096	-6.308456756	10.61934345	0.805154259	1363.976395	857.0583273	1.591462741
9.676244083	-3.023793394	-6.350018738	10.68417521	0.805635154	1362.971032	856.7127572	1.590931173
9.731929749	-3.053556971	-6.39274336	10.74978207	0.806156802	1363.056608	856.7618528	1.590939891
9.787615415	-3.08192538	-6.434770397	10.81492387	0.806653998	1362.192356	856.4640576	1.590483972
9.843301081	-3.110293789	-6.476797435	10.88006568	0.807151193	1361.920758	856.341686	1.590394092
9.898986747	-3.13959231	-6.519289529	10.94551752	0.807664691	1360.758711	856.077019	1.589528373
9.954672413	-3.168890831	-6.561781622	11.01096936	0.808178188	1360.276424	855.9259676	1.58924542
10.01035808	-3.195864073	-6.603111076	11.0756461	0.808650932	1359.627121	855.7906654	1.588737966
10.06604375	-3.224697538	-6.645370642	11.14094292	0.809156278	1358.799899	855.3736408	1.588545443
10.12172941	-3.253065947	-6.68739768	11.20608473	0.809653474	1357.629159	854.8823481	1.58808889
10.17741508	-3.280504245	-6.728959661	11.27091649	0.810134368	1356.973343	854.6536215	1.587746554
10.23310074	-3.308407598	-6.770754171	11.33590328	0.810623413	1356.354716	854.5180136	1.587274574
10.28878641	-3.336310952	-6.812548681	11.40089006	0.811112458	1355.866447	854.4567954	1.586816858
10.34447208	-3.364679361	-6.854575719	11.46603186	0.811609654	1355.175495	854.2764271	1.586343076
10.40015774	-3.391652603	-6.895905172	11.53070861	0.812082398	1354.285014	854.0513491	1.585718488
10.45584341	-3.419555956	-6.937699682	11.59569539	0.812571443	1353.664993	853.7434654	1.585564105
10.51152907	-3.446064142	-6.978796608	11.66021712	0.813036035	1352.932534	853.4482154	1.585254395
10.56721474	-3.474432551	-7.020823646	11.72535892	0.813533231	1352.392531	853.3997875	1.584711587
10.62290041	-3.501405793	-7.0621531	11.79003567	0.814005975	1351.198235	853.0228326	1.584011803
10.67858607	-3.529309146	-7.103947609	11.85502246	0.81449502	1350.728779	852.9066674	1.583677125
10.73427174	-3.556282387	-7.145277063	11.9196992	0.814967763	1349.470176	852.5077849	1.582941763
10.78995741	-3.583255629	-7.186606517	11.98437595	0.815440507	1348.709545	852.2242065	1.582575964
10.84564307	-3.611158982	-7.228401027	12.04936273	0.815929552	1348.087869	852.037223	1.582193633
10.90132874	-3.638132224	-7.269730481	12.11403948	0.816402296	1346.981539	851.6582432	1.581598663
10.9570144	-3.665570522	-7.311292463	12.17887124	0.81688319	1345.934323	851.0771262	1.581448122
11.01270007	-3.693008819	-7.352854444	12.24370301	0.817364084	1344.413544	850.5600789	1.580621495
11.06838574	-3.719517005	-7.39395137	12.30822474	0.817828677	1344.218932	850.6062114	1.580306979
