eps1        epsv      eps3             epsq       Void ratio    q           p          eta = q/p  
[%]         [%]       [%]              [%]        [%]           [kPa]       [kPa]      [-]

0	0	0	0	0.732817483	1.7191385	49.46086217	0.034757552
0.002035796	-0.003426592	-0.002731194	0.003177994	0.73287686	2.298608163	49.62378472	0.046320694
0.011028637	0.017704058	0.003337711	0.005127284	0.732510704	7.490391026	51.39361101	0.145745568
0.048867217	0.031981524	-0.008442846	0.038206709	0.732263302	17.8601882	54.77061207	0.326090718
0.097600918	0.05482547	-0.021387724	0.079325761	0.731867458	27.81961178	58.13046193	0.478572006
0.146826878	0.069674035	-0.038576422	0.1236022	0.731610159	37.62497102	61.46870501	0.612099621
0.191228695	0.083951501	-0.053638597	0.163244861	0.731362757	47.48492293	64.67527164	0.734205234
0.236516578	0.09708677	-0.069714904	0.204154322	0.731135146	56.92792032	67.81280544	0.839486288
0.281902914	0.106795447	-0.087553734	0.246304432	0.730966913	65.80725036	70.76309812	0.929965648
0.333393269	0.117646321	-0.107873474	0.294177828	0.730778887	74.27056695	73.61427565	1.008915272
0.37907496	0.117075222	-0.130999869	0.340049886	0.730788783	82.03652166	76.17301722	1.076976135
0.429876152	0.11821742	-0.155829366	0.390470345	0.730768991	89.13362397	78.54868799	1.134756369
0.479102112	0.111935335	-0.183583389	0.441790334	0.730877848	95.82881482	80.81032827	1.185848602
0.528131169	0.105653249	-0.21123896	0.492913419	0.730986705	101.8571014	82.76942114	1.230612707
0.578243197	0.089091389	-0.244575904	0.548546067	0.731273692	107.6191788	84.7500956	1.269841385
0.632687109	0.072529528	-0.280078791	0.6085106	0.731560679	112.6024525	86.42164282	1.302942744
0.688115541	0.056538766	-0.315788387	0.669269286	0.731837769	117.5404761	88.0676507	1.334661197
0.735077107	0.045116793	-0.344980157	0.720038176	0.732035691	121.9814845	89.58786682	1.361584875
0.783613904	0.027412735	-0.378100585	0.774476326	0.73234247	126.0696365	90.94110017	1.386277891
0.83717175	0.005139888	-0.416015931	0.835458454	0.732728418	130.0004954	92.31169247	1.408277672
0.891911018	-0.015419663	-0.453665341	0.897050906	0.733084678	133.5692211	93.48132771	1.428833163
0.950194555	-0.034265919	-0.492230237	0.961616528	0.733411249	137.0282822	94.72440208	1.446599601
1.002669429	-0.058252062	-0.530460745	1.022086783	0.733826885	140.0358687	95.6770809	1.463630238
1.051698486	-0.082809304	-0.567253895	1.079301587	0.734252417	143.2546495	96.77010983	1.480360514
1.109095956	-0.111364236	-0.610230096	1.146217368	0.734747222	145.9702462	97.66550074	1.494593742
1.160881666	-0.137634774	-0.64925822	1.206759924	0.735202442	148.7088229	98.63850362	1.507614343
1.210599887	-0.170187396	-0.690393641	1.267329019	0.73576652	151.3354607	99.53479956	1.520427643
1.261597982	-0.195886835	-0.728742409	1.326893594	0.736211844	153.7320178	100.3633999	1.531753786
1.319783067	-0.228439458	-0.774111263	1.395929553	0.736775922	156.0743509	101.1541476	1.542935753
1.370485807	-0.256994391	-0.813740099	1.456150603	0.737270727	158.1012092	101.8398991	1.552448605
1.422566873	-0.287833717	-0.855200295	1.518511445	0.737805116	160.423133	102.6140357	1.563364426
1.479570535	-0.324384031	-0.901977283	1.587698545	0.738438466	162.2110328	103.2201343	1.571505734
1.533522188	-0.356365555	-0.944943871	1.652310706	0.738992648	164.2781483	103.9295988	1.580667589
1.594956187	-0.382636093	-0.98879614	1.722501551	0.739447868	166.1442464	104.5215595	1.58956915
1.647824869	-0.422041899	-1.034933384	1.788505502	0.740130699	167.928997	105.1565183	1.596943296
1.69862606	-0.458021114	-1.078323587	1.851299764	0.740754153	169.5787145	105.7072342	1.604229983
1.752282357	-0.491715934	-1.121999145	1.916187668	0.741338023	171.0659297	106.2238846	1.61042811
1.802099029	-0.528266247	-1.165182638	1.978187778	0.741971373	172.8686933	106.8650098	1.61763606
1.85851198	-0.563674363	-1.211093172	2.046403434	0.742584931	174.1841215	107.3136178	1.623131575
1.91078995	-0.607648959	-1.259219455	2.113339603	0.74334693	175.8052695	107.8843965	1.629570867
1.96867968	-0.643057075	-1.305868377	2.183032038	0.743960488	177.0949167	108.3146029	1.635004994
2.021449909	-0.685889473	-1.353669691	2.250079734	0.744702696	178.5707801	108.8170134	1.641018942
2.07579537	-0.720726491	-1.39826093	2.316037534	0.745306358	179.8450104	109.3022248	1.645392038
2.1234461	-0.766985481	-1.44521579	2.379107927	0.746107941	181.0561748	109.6959763	1.650527038
2.178185368	-0.810960077	-1.494572722	2.448505394	0.746869941	182.3780696	110.1274479	1.656063707
2.234795223	-0.849223686	-1.542009454	2.517869785	0.747532979	183.320132	110.4715407	1.659433107
2.287368549	-0.888629493	-1.587999021	2.583578379	0.74821581	184.6492437	110.9049319	1.664932664
2.344569115	-0.934888483	-1.639728799	2.656198609	0.749017394	185.6582111	111.3113684	1.667917786
2.399308383	-0.976007585	-1.687657984	2.724644245	0.749729913	186.7660473	111.6708391	1.672469275
2.45040493	-1.018268885	-1.734336908	2.789827892	0.750462224	187.7547569	112.050745	1.675622567
2.503273612	-1.055390297	-1.779331954	2.855070377	0.751105471	188.8170531	112.3950357	1.679941218
2.561064889	-1.102791485	-1.831928187	2.928662051	0.751926847	189.7789451	112.7754864	1.682803163
2.61235834	-1.145052785	-1.878705562	2.994042602	0.752659158	190.5530039	113.014214	1.68609768
2.669952714	-1.187885183	-1.928918949	3.065914442	0.753401365	191.6755331	113.4088164	1.690129033
2.723904367	-1.231859779	-1.977882073	3.134524293	0.754163365	192.3508918	113.6744639	1.692120509
2.774607106	-1.278118769	-2.026362938	3.200646696	0.754964948	193.3551133	114.0194984	1.695807436
2.831610769	-1.324948858	-2.078279813	3.273260388	0.755776428	194.0327709	114.2757803	1.697934334
2.886448489	-1.366639059	-2.126543774	3.341994842	0.756498844	194.8781875	114.6278618	1.700094413
2.942664536	-1.406615964	-2.17464025	3.411536524	0.75719157	195.739496	114.9151267	1.703339688
2.991102881	-1.456872645	-2.223987763	3.476727096	0.758062427	196.353801	115.120057	1.705643709
3.044266919	-1.50541603	-2.274841474	3.546072262	0.758903595	197.1667316	115.4415319	1.707935857
3.096249533	-1.554530514	-2.325390023	3.614426371	0.759754659	197.6870895	115.6254405	1.709719666
3.149807378	-1.595078517	-2.372442948	3.681500217	0.760457282	198.5285248	115.8961109	1.712986943
3.202479156	-1.639624212	-2.421051684	3.74902056	0.761229178	199.1049988	116.0882689	1.715117304
3.258892107	-1.688738695	-2.473815401	3.821805005	0.762080242	199.8689247	116.4236429	1.716738282
3.315108154	-1.736710982	-2.525909568	3.894011814	0.762911514	200.3599394	116.5976085	1.71838807
3.36768148	-1.781827775	-2.574754627	3.961624071	0.763693306	200.8970611	116.826823	1.719614176
3.421534681	-1.833797751	-2.627666216	4.032800598	0.764593851	201.519108	117.074538	1.721288945
3.477553824	-1.874916854	-2.676235339	4.102526108	0.76530637	201.9007696	117.2019205	1.722674583
3.529733342	-1.924602436	-2.727167889	4.171267487	0.76616733	202.5450859	117.4271486	1.724857397
3.583291187	-1.970861426	-2.777076307	4.240244996	0.766968914	203.021582	117.5261607	1.727458643
3.641968532	-2.020547008	-2.83125777	4.315484202	0.767829875	203.5812491	117.8227104	1.727860855
3.6967078	-2.063950505	-2.880329153	4.384691302	0.768581978	203.9904936	117.9795512	1.729032629
3.751250165	-2.113064989	-2.932157577	4.455605161	0.769433043	204.4385804	118.1890575	1.729758954
3.807170856	-2.160466177	-2.983818516	4.527326248	0.770254419	204.9198839	118.349978	1.731473781
3.861024057	-2.210722857	-3.035873457	4.597931676	0.771125275	205.1446534	118.4350331	1.732128138
3.916846296	-2.259266242	-3.088056269	4.669935043	0.771966443	205.6554576	118.6951932	1.732635097
3.971093305	-2.299814246	-3.135453775	4.737698053	0.772669066	205.98167	118.7338167	1.734818906
4.025537217	-2.346073236	-3.185805227	4.807561629	0.77347065	206.4638896	118.9556725	1.735637193
4.081457908	-2.398043213	-3.239750561	4.880805646	0.774371195	206.7278306	119.0841809	1.735980624
4.131176128	-2.454010881	-3.292593504	4.949179755	0.775341013	207.0636212	119.2060811	1.737022301
4.185029329	-2.499698772	-3.342364051	5.018262253	0.7761327	207.5280997	119.4112432	1.737927636
4.242623703	-2.548242157	-3.39543293	5.092037756	0.776973869	207.6749492	119.4799711	1.738157009
4.297067616	-2.590503457	-3.443785536	5.160568768	0.77770618	208.0254883	119.6174054	1.739090457
4.355548057	-2.641902335	-3.498725196	5.236182168	0.778596829	208.230356	119.6564327	1.740235367
4.412453267	-2.687590227	-3.550021747	5.308316676	0.779388516	208.6673318	119.8223553	1.74147246
4.470047641	-2.746984486	-3.608516063	5.385709136	0.78041771	208.7390283	119.8568721	1.741569129
4.520455025	-2.790959081	-3.655707053	5.450774719	0.78117971	209.057938	119.9938953	1.742238115
4.575981908	-2.844071256	-3.710026582	5.52400566	0.782100047	209.2626878	120.1018633	1.742376697
4.62885059	-2.891472443	-3.760161517	5.592674738	0.782921423	209.3173438	120.1305379	1.74241577
4.682014627	-2.941158025	-3.811586326	5.662400636	0.783782383	209.5830284	120.2789195	1.742475151
4.73901829	-2.989130312	-3.864074301	5.73539506	0.784613656	209.676459	120.270345	1.743376216
4.792379231	-3.037673696	-3.915026464	5.80493713	0.785454824	209.9592397	120.4056192	1.743766122
4.848398374	-3.092499166	-3.97044877	5.87923143	0.786404849	210.006537	120.481205	1.743064713
4.899494921	-3.138187058	-4.01884099	5.945557274	0.787196537	210.4148777	120.6375826	1.744190104
4.953446574	-3.189014837	-4.071230706	6.01645152	0.78807729	210.490353	120.692975	1.744014952
5.005822996	-3.242127012	-4.123975004	6.086532	0.788997627	210.5145622	120.7013687	1.744094242
5.063515822	-3.287243805	-4.175379813	6.159263757	0.789779418	210.6753366	120.7755482	1.744354215
5.115990696	-3.334073893	-4.225032295	6.22734866	0.790590898	210.6948562	120.8024807	1.7441269
5.172009839	-3.387757166	-4.279883503	6.301262228	0.791521131	210.9068847	120.8930969	1.74457343
5.225075425	-3.442582636	-4.33382903	6.37260297	0.792471157	210.875041	120.9132023	1.744019982
5.280011597	-3.481988443	-4.38100002	6.440674411	0.793153987	211.1833021	121.085746	1.744080612
5.331797307	-3.533387321	-4.432592314	6.509593081	0.794044636	211.242855	121.146125	1.743702946
5.384469085	-3.575077522	-4.479773304	6.576161592	0.794767051	211.270542	121.195882	1.743215516
5.439602161	-3.624192006	-4.531897083	6.647666163	0.795618116	211.4579924	121.2784675	1.74357408
5.494046073	-3.672164292	-4.583105183	6.718100837	0.796449388	211.2056352	121.1946724	1.742697356
5.548883793	-3.724134269	-4.636509031	6.790261883	0.797349933	211.4198681	121.2167194	1.744147748
5.59584536	-3.770964357	-4.683404859	6.852833479	0.798161413	211.3995125	121.2995022	1.742789614
5.646548099	-3.817794446	-4.732171273	6.919146248	0.798972893	211.648717	121.3225883	1.744512048
5.701287367	-3.869764423	-4.785525895	6.991208842	0.799873437	211.5671656	121.3364185	1.743641094
5.752383915	-3.918878907	-4.835631411	7.058676883	0.800724502	211.6954072	121.4595737	1.742928949
5.813621009	-3.962282404	-4.887951707	7.134381811	0.801476605	211.7956803	121.5333641	1.742695776
5.865800528	-4.014252381	-4.940026454	7.203884655	0.80237715	211.5400011	121.4280357	1.742101813
5.919358373	-4.059940272	-4.989649322	7.272671797	0.803168838	211.8150307	121.5705342	1.742322118
5.973703833	-4.107912558	-5.040808196	7.343008019	0.80400011	211.5301024	121.4255461	1.74205601
6.025686448	-4.158169239	-5.091927843	7.411742861	0.804870967	211.7658687	121.5243989	1.742579026
6.082788562	-4.206712624	-5.144750593	7.485026103	0.805712135	211.5548263	121.4345974	1.742129762
6.138118542	-4.255827108	-5.196972825	7.556727578	0.806563199	211.6546945	121.5080908	1.741897951
6.197386598	-4.301514999	-5.249450799	7.631224931	0.807354887	211.6226495	121.4977332	1.741782698
6.253307289	-4.347202891	-5.30025509	7.70237492	0.808146575	211.4038874	121.4952505	1.740017709
6.308637269	-4.400886164	-5.354761716	7.775599324	0.809076808	211.5904636	121.5479585	1.740798169
6.360915239	-4.44885845	-5.404886845	7.843868056	0.80990808	211.3914101	121.5816314	1.738678843
6.418509613	-4.494546342	-5.456527977	7.916691727	0.810699768	211.4430609	121.5491603	1.739568257
6.476596247	-4.547658516	-5.512127381	7.992482419	0.811620105	211.2849756	121.5564472	1.738163466
6.527102082	-4.593346407	-5.560224245	8.058217551	0.812411793	211.4164399	121.5804906	1.738901026
6.583318129	-4.639605398	-5.611461763	8.129853262	0.813213376	211.3083694	121.5346591	1.738667561
6.634119321	-4.689862078	-5.661990699	8.19740668	0.814084233	211.1241789	121.5337303	1.737165299
6.688366329	-4.736692167	-5.712529248	8.267263718	0.814895713	211.1477145	121.5620015	1.736954903
6.743204049	-4.775526875	-5.759365462	8.335046341	0.815568648	210.9774532	121.5454517	1.735790605
6.796368087	-4.825783556	-5.811075821	8.404962605	0.816439504	210.9641418	121.5911886	1.735028206
6.852682586	-4.875469138	-5.864075862	8.477838965	0.817300465	210.8167245	121.5825775	1.733938602
6.908209469	-4.918301537	-5.913255503	8.547643315	0.818042672	210.8446023	121.5819001	1.734177555
6.966985266	-4.971984809	-5.969485038	8.624313536	0.818972905	210.6675319	121.5733746	1.732842676
7.017688006	-5.021099293	-6.019393649	8.69138777	0.819823969	210.6136158	121.5153606	1.733226275
7.070261331	-5.062789494	-6.066525413	8.757857829	0.820546384	210.5861383	121.5263034	1.732844103
7.123228465	-5.107335188	-6.115281827	8.825673528	0.82131828	210.2814806	121.4554709	1.731346304
7.179936772	-5.154736376	-6.167336574	8.89818223	0.822139656	210.3761252	121.4374931	1.732381984
7.231033319	-5.210704043	-6.220868681	8.967934666	0.823109474	210.0691092	121.4355024	1.72988216
7.285181875	-5.255249738	-6.270215806	9.036931788	0.823881369	210.143036	121.4707627	1.729988611
7.345139095	-5.302650925	-6.32389501	9.112689404	0.824702745	209.9284446	121.4284942	1.728823585
7.393872796	-5.348338817	-6.371105807	9.176652402	0.825494433	209.9010836	121.4295059	1.728583857
7.447922901	-5.3974533	-6.422688101	9.247074001	0.826345497	209.8072671	121.4482457	1.72754465
7.503646688	-5.440856797	-6.472251743	9.317265621	0.827097601	209.5314732	121.3772264	1.726283253
7.561339514	-5.487686886	-6.5245132	9.390568476	0.827909081	209.6075123	121.3832808	1.726823587
7.618047821	-5.534516975	-6.576282398	9.462886813	0.828720561	209.2441608	121.2824276	1.725263626
7.673279349	-5.576207176	-6.624743263	9.532015074	0.829442976	209.3355621	121.3331587	1.725295578
7.729003136	-5.62931935	-6.679161243	9.60544292	0.830363313	209.0411297	121.3152606	1.723123115
7.780001231	-5.672722848	-6.726362039	9.670908847	0.831115416	209.0911138	121.3623179	1.722866845
7.836217278	-5.722979528	-6.779598403	9.743877121	0.831986273	208.9270866	121.3579782	1.721576856
7.891547258	-5.757816546	-6.824681902	9.81081944	0.832589935	208.6074645	121.2718635	1.720163758
7.945006651	-5.810357621	-6.877682136	9.881792525	0.833500376	208.6647414	121.3012498	1.720219221
7.999450564	-5.854903316	-6.92717694	9.951085002	0.834272271	208.2971329	121.1488036	1.719349483
8.05103937	-5.898877911	-6.974958641	10.01733201	0.835034271	208.3908307	121.2498262	1.718689727
8.102726629	-5.94171031	-7.022218469	10.08329673	0.835776478	208.0489598	121.1667513	1.717046612
8.155004599	-5.991395892	-7.073200245	10.15213656	0.836637438	208.1450836	121.2089245	1.717242228
8.211614454	-6.036512685	-7.124063569	10.22378535	0.83741923	207.9594454	121.1169731	1.717013231
8.262907905	-6.077060689	-7.169984297	10.2885948	0.838121853	207.7482182	121.0465641	1.716266957
8.320108471	-6.125032975	-7.222570723	10.36178613	0.838953125	207.7425279	121.0752253	1.71581368
8.371697278	-6.164438782	-7.26806803	10.4265102	0.839635956	207.3932112	121.0192544	1.713720781
8.42564893	-6.215266561	-7.320457746	10.49740445	0.840516709	207.4046902	120.9835247	1.714321769
8.481766525	-6.256956762	-7.369361644	10.56741878	0.841239124	207.1807616	120.9487619	1.712963063
8.538573284	-6.288938286	-7.413755785	10.63488605	0.841793305	207.1602382	120.9822867	1.712318752
8.592229581	-6.332341783	-7.462285682	10.70301018	0.842545408	207.0779836	121.0052045	1.711314686
8.642144705	-6.375174182	-7.508659443	10.76720277	0.843287616	206.819734	120.9192833	1.71039497
8.695801002	-6.412295594	-7.554048298	10.83323287	0.843930862	206.7188247	120.8661929	1.710311376
8.752804664	-6.467121064	-7.609962864	10.90851169	0.844880887	206.3753938	120.8022139	1.708374268
8.806854769	-6.510524561	-7.658689665	10.97702962	0.845632991	206.4310904	120.8613075	1.707999812
8.860412614	-6.539650592	-7.700031603	11.04029614	0.846137692	206.0532776	120.7253999	1.706793084
8.913379748	-6.592762766	-7.753071257	11.11096734	0.847058029	206.0001111	120.7978937	1.705328668
8.96782366	-6.631026375	-7.799425018	11.17816579	0.847721067	206.0489715	120.8243125	1.705360181
9.020968007	-6.675572069	-7.848270038	11.2461587	0.848492963	205.6124192	120.6392391	1.704357726
9.073866225	-6.713835679	-7.893850952	11.31181145	0.849156001	205.8332829	120.7826503	1.704162662
9.130476079	-6.756668077	-7.943572078	11.38269877	0.849898209	205.5459949	120.7073136	1.702846238
9.186140796	-6.800071574	-7.993106185	11.45283132	0.850650312	205.4896549	120.7087976	1.70235856
9.242376533	-6.847472762	-8.044924647	11.52486745	0.851471688	205.0419617	120.5198486	1.701312806
9.295639022	-6.888020766	-8.091829894	11.59164594	0.852174311	204.9355399	120.4745666	1.701068911
9.353637049	-6.924571079	-8.139104064	11.66182741	0.852807661	204.6429342	120.4878354	1.698453072
9.406919229	-6.972543365	-8.189731297	11.73110035	0.853638933	205.0559189	120.605557	1.700219493
9.467683755	-7.011378073	-8.239530914	11.80480978	0.854311868	204.5394542	120.5035161	1.697373329
9.517687485	-7.059350359	-8.288518922	11.87080427	0.85514314	204.7760494	120.5728971	1.69835887
9.572101862	-7.104467152	-8.338284507	11.94025758	0.855924932	204.5362983	120.5228901	1.697074291
9.63142899	-7.134164282	-8.382796636	12.00948375	0.856439529	204.1025201	120.3586814	1.695785612
9.686365162	-7.179852174	-8.433108668	12.07964922	0.857231217	203.5729792	120.2120777	1.693448637
9.742630435	-7.213546994	-8.478088714	12.1471461	0.857815086	203.1852244	120.1338101	1.691324234
9.79694636	-7.259234885	-8.528090622	12.21669132	0.858606774	203.1732416	120.1397859	1.691140367
9.852089281	-7.300353988	-8.576221634	12.28554061	0.859319293	202.7292664	119.9117101	1.690654451
9.904209728	-7.338617597	-8.621413662	12.35041559	0.859982332	202.6002625	119.9888348	1.688492623
9.960849118	-7.383163291	-8.672006205	12.42190355	0.860754227	202.373812	119.9439093	1.687237085
10.0184238	-7.41742921	-8.717926506	12.4909002	0.861347993	201.9537184	119.8238181	1.68542216
10.07143032	-7.460832707	-8.766131512	12.55837455	0.862100096	201.7231036	119.7173605	1.68499458
10.12420055	-7.496811922	-8.810506234	12.62313785	0.862723551	201.3265648	119.6752349	1.682274239
10.18129281	-7.533933334	-8.857613074	12.69260393	0.863366797	201.3697727	119.6495956	1.682995849
10.23069599	-7.575623535	-8.903159762	12.75590383	0.864089212	201.0157914	119.5423818	1.681544138
10.28519897	-7.61560044	-8.950399706	12.82373245	0.864781939	200.8191179	119.517028	1.680255285
10.34199589	-7.656719543	-8.999357714	12.89423573	0.865494458	200.6003386	119.4344555	1.679585156
10.39311212	-7.697838645	-9.045475384	12.95905834	0.866206977	200.1997581	119.3112227	1.677962505
10.44786124	-7.726393577	-9.087127407	13.02332576	0.866701782	200.1740347	119.3327202	1.677444663
10.50144862	-7.764086088	-9.132767353	13.08947731	0.867354924	199.700249	119.1249417	1.676393258
10.55332293	-7.803491895	-9.178407415	13.1544869	0.868037755	199.7505031	119.252173	1.675026106
10.61294542	-7.838328912	-9.225637165	13.22572172	0.868641417	199.4036687	119.1063276	1.6741652
10.66596178	-7.878876916	-9.272419347	13.29225408	0.86934404	199.5235134	119.1671878	1.674315867
10.72305405	-7.921709314	-9.32238168	13.36362382	0.870086247	199.287083	119.0587917	1.673854406
