eps1        epsv      eps3             epsq       Void ratio    q           p          eta = q/p  
[%]         [%]       [%]              [%]        [%]           [kPa]       [kPa]      [-]

0	0	0	0	0.847616879	1.74	299.03	0.01
0.014194472	0.008012741	-0.003090865	0.011523558	0.847468834	14.86205312	303.4185991	0.048982011
0.041646075	0.02686625	-0.007389912	0.032690658	0.847120493	33.13801459	309.4397003	0.107090378
0.078083634	0.047133773	-0.015474931	0.062372377	0.846746027	54.40749182	316.509377	0.171898515
0.110768816	0.069757983	-0.020505416	0.087516155	0.846328018	74.81038022	323.3608338	0.231352633
0.147700109	0.096624234	-0.025537938	0.115492031	0.845831633	94.62131577	329.913904	0.286806087
0.190259968	0.122547809	-0.03385608	0.149410699	0.845352665	113.4497599	336.220316	0.337426843
0.233708548	0.148471383	-0.042618582	0.184218087	0.844873696	130.7491597	341.9665526	0.382344878
0.274688459	0.172980945	-0.050853757	0.217028144	0.844420854	147.2336367	347.4511013	0.423753547
0.318828266	0.198433182	-0.060197542	0.252683872	0.843950594	163.3241369	352.7742224	0.462970723
0.362375593	0.222942744	-0.069716424	0.288061345	0.843497751	178.1320652	357.6490225	0.498063895
0.397233204	0.245566955	-0.075833124	0.315377552	0.843079742	192.6897622	362.5422911	0.531495958
0.436633166	0.269133841	-0.083749663	0.346921886	0.842644316	206.481728	367.1190591	0.562438051
0.472182004	0.290344039	-0.090918983	0.375400658	0.842252433	219.3156303	371.3768775	0.590547348
0.510791992	0.312025574	-0.099383209	0.406783468	0.841851842	232.0477581	375.5903321	0.617821435
0.553351851	0.331350421	-0.111000715	0.442901711	0.841494792	244.079366	379.6414091	0.64292082
0.598182886	0.352560618	-0.122811134	0.48066268	0.841102909	255.8652021	383.5497101	0.667097889
0.632250523	0.371885465	-0.130182529	0.508288701	0.84074586	267.5773571	387.4334508	0.690640823
0.678957746	0.388382285	-0.14528773	0.549496984	0.840441062	278.6358978	391.139942	0.712368817
0.720530138	0.407707132	-0.156411503	0.58462776	0.840084013	289.5086667	394.7537593	0.733390525
0.7599301	0.429388667	-0.165270716	0.616800544	0.839683421	300.0777984	398.3276212	0.753344188
0.803181186	0.449184852	-0.176998167	0.653452902	0.839317664	310.202621	401.6823321	0.772258564
0.844753578	0.467095685	-0.188828946	0.689055016	0.83898674	320.3219338	405.0250103	0.790869516
0.886720956	0.484535181	-0.201092887	0.725209229	0.838664525	329.9193181	408.2344964	0.808161292
0.926614652	0.501974677	-0.212319988	0.75928976	0.83834231	339.5189768	411.4343017	0.825208242
0.973124382	0.518471498	-0.227326442	0.80030055	0.838037512	348.8857013	414.5154352	0.841671194
1.018745391	0.533082967	-0.242831212	0.841051069	0.837767548	357.6192766	417.4369849	0.856702423
1.062983945	0.548637112	-0.257173417	0.880104908	0.837480167	366.4475635	420.4097682	0.871643789
1.113246053	0.563719919	-0.274763067	0.925339413	0.837201494	374.9709653	423.2606932	0.8859102
1.14820241	0.577860051	-0.28517118	0.955582393	0.836940239	383.3422648	426.0313823	0.899798186
1.201426921	0.592000183	-0.304713369	1.004093527	0.836678983	391.655877	428.7926334	0.913392271
1.245764222	0.606140314	-0.319811954	1.04371745	0.836417728	399.3392812	431.3131461	0.925868559
1.285954158	0.619337771	-0.333308194	1.079508235	0.83617389	407.3424248	433.9811037	0.938617883
1.327724043	0.631592552	-0.348065746	1.117193193	0.835947468	414.7812721	436.4403274	0.950373387
1.372061344	0.642904657	-0.364578344	1.157759792	0.835738464	421.9809398	438.7793647	0.961715554
1.419262302	0.655630775	-0.381815763	1.20071871	0.835503334	429.4620088	441.2626963	0.973257002
1.465772031	0.666471543	-0.399650244	1.24361485	0.835303038	436.2009282	443.5393478	0.983454862
1.512479255	0.677783649	-0.417347803	1.286551372	0.835094034	443.1188401	445.8453994	0.993884518
1.557409037	0.687681741	-0.434863648	1.32818179	0.834911155	450.0150594	448.1236662	1.004220695
1.596710252	0.698522508	-0.449093872	1.363869416	0.834710859	456.5347498	450.3375183	1.013761304
1.642824995	0.708420601	-0.467202197	1.406684795	0.83452798	463.1419225	452.4788142	1.023565984
1.690322193	0.717847355	-0.486237419	1.451039741	0.83435381	469.2605653	454.5589028	1.0323427
1.72804346	0.72727411	-0.500384675	1.485618757	0.83417964	475.6405871	456.6245628	1.041644769
1.772775748	0.735758189	-0.51850878	1.527523018	0.834022886	481.7041788	458.646165	1.05027408
1.819482971	0.744242268	-0.537620352	1.571402215	0.833866133	487.4797584	460.5917502	1.058377095
1.872312495	0.752726347	-0.559793074	1.621403713	0.83370938	493.4933086	462.5861519	1.066813839
1.912996165	0.76026775	-0.576364207	1.659573582	0.833570043	499.1573929	464.484457	1.074648216
1.96088835	0.766866479	-0.597010936	1.70526619	0.833448124	504.5752274	466.3206659	1.082034884
2.004929411	0.773936544	-0.615496433	1.746950562	0.833317496	510.2474518	468.1909343	1.089827706
2.04778551	0.780535273	-0.633625119	1.787607086	0.833195577	515.3183658	469.86109	1.096746202
2.102589969	0.786662663	-0.657963653	1.840369081	0.833082367	520.7741771	471.7100388	1.104013344
2.146236042	0.793261391	-0.676487326	1.881815579	0.832960447	525.9776309	473.3735564	1.111125925
2.193042013	0.799388782	-0.696826616	1.926579085	0.832847237	530.9391427	475.0477856	1.117654179
2.236589339	0.805516172	-0.715536584	1.968083949	0.832734026	536.2594144	476.8211285	1.124655311
2.283494056	0.810700887	-0.736396585	2.013260427	0.832638232	541.0975957	478.4135446	1.131024825
2.329016319	0.815885602	-0.756565358	2.057054451	0.832542439	545.6123481	479.9387731	1.136837402
2.371378684	0.821070317	-0.775154184	2.097688579	0.832446645	550.6491182	481.6482845	1.143259793
2.412852329	0.825783694	-0.793534317	2.137591097	0.83235956	555.1218927	483.0987493	1.149085758
2.456004668	0.830025734	-0.812989467	2.179329424	0.832281183	559.8689739	484.6609607	1.155176545
2.506365523	0.834739111	-0.835813206	2.228119152	0.832194098	564.2829909	486.1422527	1.160736364
2.554257707	0.8370958	-0.858580954	2.275225774	0.832150555	568.6572529	487.650996	1.166115229
2.595237618	0.841809177	-0.876714221	2.314634559	0.83206347	573.0633407	489.0993	1.171670744
2.634933821	0.844637203	-0.895148309	2.353388086	0.832011219	577.2996608	490.4606697	1.177055973
2.679073628	0.84746523	-0.915804199	2.396585218	0.831958968	581.5784242	491.8971201	1.182317197
2.724990877	0.850293256	-0.937348811	2.441559792	0.831906717	585.7521828	493.31888	1.187370292
2.774857998	0.853121282	-0.960868358	2.490484237	0.831854466	589.6449202	494.6368511	1.192076407
2.821367728	0.855006633	-0.983180547	2.536365517	0.831819632	593.8918074	496.0523992	1.197236035
2.862446385	0.857363322	-1.002541532	2.576658611	0.831776089	597.5927785	497.2757792	1.20173313
2.909252355	0.85972001	-1.024766172	2.622679019	0.831732547	601.3634603	498.5124432	1.206315847
2.954182137	0.860191348	-1.046995394	2.667451688	0.831723838	605.4915578	499.8884757	1.211253284
3.002173068	0.861605361	-1.070283854	2.714971281	0.831697713	608.9527867	501.0522526	1.215347867
3.047695331	0.863019374	-1.092337978	2.760022206	0.831671587	612.8767546	502.3809579	1.219944237
3.088675241	0.86396205	-1.112356596	2.800687891	0.83165417	616.5885702	503.6484128	1.224244045
3.134394997	0.864904725	-1.134745136	2.846093422	0.831636753	619.9605041	504.7523228	1.228246956
3.181102221	0.865376063	-1.157863079	2.892643533	0.831628045	623.7698786	506.0320673	1.232668676
3.221687144	0.866318739	-1.177684203	2.932914231	0.831610627	627.1140549	507.1467927	1.236553329
3.265333218	0.865376063	-1.199978577	2.97687453	0.831628045	630.5672585	508.2674346	1.240621011
3.31974269	0.865376063	-1.227183313	3.031284002	0.831628045	634.060352	509.4623061	1.244567742
3.365462445	0.864904725	-1.25027886	3.07716087	0.831636753	637.1900719	510.546168	1.248055733
3.408022304	0.864433388	-1.271794458	3.119877842	0.831645462	640.5889525	511.6080802	1.252108747
3.454630781	0.863490712	-1.295570034	3.166800544	0.831662879	643.9006253	512.7323632	1.255822085
3.490870847	0.861605361	-1.314632743	3.20366906	0.831697713	646.9670079	513.6938817	1.25944075
3.539256765	0.860662686	-1.33929704	3.252369203	0.83171513	650.3856466	514.9046379	1.263118641
3.584779028	0.858305997	-1.363236515	3.298677029	0.831758672	653.1650865	515.8006109	1.266313131
3.629807556	0.856420646	-1.386693455	3.344334007	0.831793506	656.3959672	516.8777331	1.269925023
3.676218539	0.854063958	-1.411077291	3.391530553	0.831837049	659.4675117	517.8710743	1.273420248
3.719074639	0.850764594	-1.434155022	3.435486441	0.831898008	662.2315351	518.8227604	1.27641188
3.763609433	0.847936567	-1.457836433	3.480963911	0.83195026	665.3420848	519.8495763	1.279874247
3.811007884	0.844165865	-1.483421009	3.529619262	0.832019928	668.2441726	520.8269729	1.28304448
3.864824875	0.841337839	-1.511743518	3.584378929	0.832072179	670.9256604	521.7309982	1.285960893
3.910347137	0.837567137	-1.53639	3.631158092	0.832141847	674.0483393	522.8121082	1.289274538
3.953203237	0.834267773	-1.559467732	3.675113979	0.832202807	676.4038149	523.5665167	1.291915723
4.003860331	0.830025734	-1.586917299	3.727185087	0.832281183	679.2483831	524.5354221	1.294952361
4.044247761	0.825783694	-1.609232033	3.76898653	0.83235956	682.0196006	525.4488033	1.297975362
4.088190075	0.82248433	-1.632852872	3.814028632	0.832420519	684.7156232	526.3577545	1.300855962
4.138847169	0.817770953	-1.660538108	3.866256852	0.832507605	687.4220194	527.2600485	1.303762766
4.184270685	0.813528913	-1.685370886	3.91309438	0.832585981	689.8987073	528.0653812	1.306464563
4.240260105	0.810229549	-1.715015278	3.970183589	0.832646941	692.2314951	528.9037481	1.308804291
4.281931243	0.80598751	-1.737971867	4.01326874	0.832725317	695.1029787	529.8204493	1.311959513
4.324787343	0.803159483	-1.76081393	4.057067515	0.832777569	697.1191912	530.4825671	1.314122715
4.371494566	0.798917444	-1.786288561	4.105188751	0.832855945	699.9481556	531.3849333	1.317214907
4.419485498	0.795146742	-1.812169378	4.154436584	0.832925613	702.3946287	532.2103773	1.319768758
4.463822799	0.790904703	-1.836459048	4.200187898	0.83300399	704.5953761	532.9238108	1.322131535
4.513591172	0.787134001	-1.863228586	4.251213172	0.833073658	707.1825813	533.8466595	1.324692341
4.557730979	0.782420624	-1.887655178	4.296924105	0.833160743	709.3050151	534.5341504	1.326959212
4.609869275	0.778178584	-1.915845346	4.350476414	0.83323912	711.4395804	535.2558682	1.329157927
4.65470031	0.772993869	-1.940853221	4.397035687	0.833334914	713.955679	536.1045207	1.331747171
4.698938864	0.768280492	-1.965329186	4.442845367	0.833421999	715.9808786	536.7800733	1.333843997
4.753348336	0.762624439	-1.995361949	4.49914019	0.833526501	718.4687357	537.589129	1.336464406
4.800944281	0.7583824	-2.021280941	4.548150147	0.833604878	720.448889	538.3199041	1.338328536
4.841726698	0.752726347	-2.044500175	4.590817916	0.83370938	722.3088474	538.8485312	1.340467322
4.885570265	0.74801297	-2.068778648	4.636232608	0.833796465	724.6273102	539.6319531	1.342817648
4.924970227	0.742828255	-2.091070986	4.677360809	0.833892259	726.6910448	540.3197027	1.344927903
4.970294996	0.736700864	-2.116797066	4.724728041	0.834005469	728.894374	541.1045587	1.347049036
5.01729846	0.730573474	-2.143362493	4.773773968	0.83411868	731.0820354	541.8642862	1.349197676
5.055809701	0.725388759	-2.165210471	4.814013448	0.834214474	732.7222811	542.3705748	1.350962451
5.099060788	0.719261368	-2.18989971	4.859306998	0.834327684	735.1982708	543.2061007	1.353442588
5.148730414	0.713605316	-2.217562549	4.910861976	0.834432186	736.6386071	543.6862128	1.354896611
5.200078736	0.707949263	-2.246064737	4.964095648	0.834536689	738.6270361	544.3693334	1.356849093
5.251032071	0.701350535	-2.274840768	5.017248559	0.834658608	740.6086639	544.99945	1.358916351
5.292308222	0.695694482	-2.29830687	5.060410061	0.83476311	742.371437	545.5668921	1.360734032
5.338521711	0.689095754	-2.324712979	5.108823127	0.834885029	744.5431927	546.2907296	1.362906512
5.385228935	0.682497026	-2.351365955	5.157729926	0.835006948	746.181331	546.8370997	1.36454043
5.431343678	0.676369635	-2.377487021	5.205887133	0.835120159	747.6148085	547.3350746	1.36591796
5.474397271	0.66929957	-2.402548851	5.251297414	0.835250787	749.8705211	548.1073708	1.368108807
5.524758125	0.662229504	-2.431264311	5.304014957	0.835381415	751.3464286	548.6095359	1.369546789
5.565935529	0.655630775	-2.455152377	5.347391937	0.835503334	753.229841	549.2372591	1.371410676
5.613827714	0.649032047	-2.482397833	5.397483698	0.835625253	754.8821625	549.7677219	1.373092913
5.659251229	0.641961981	-2.508644624	5.445263902	0.835755881	756.5658633	550.3899695	1.374599657
5.707735895	0.634420578	-2.536657658	5.496262369	0.835895217	758.2015945	550.9149022	1.376259004
5.753554397	0.626879174	-2.563337611	5.544594672	0.836034553	759.7515193	551.4216718	1.377804969
5.801446582	0.619809108	-2.590818737	5.594843546	0.836165181	761.2162381	551.9098304	1.379240224
5.850721222	0.612739043	-2.61899109	5.646474874	0.836295809	763.1566328	552.5465137	1.381162697
5.896440977	0.605197639	-2.645621669	5.694708431	0.836435145	764.3689494	552.9607342	1.382320483
5.934260991	0.597656235	-2.668302378	5.735042246	0.836574481	766.0799585	553.5609296	1.383912624
5.985115579	0.590586169	-2.697264705	5.788253523	0.836705109	767.4247016	554.0291643	1.385170224
6.035081446	0.583044766	-2.72601834	5.840733191	0.836844445	768.8754716	554.5235983	1.3865514
6.081887417	0.574560687	-2.753663365	5.890367188	0.837001198	770.8998913	555.1373908	1.388665048
6.12889088	0.567019283	-2.780935799	5.939884453	0.837140535	771.9873116	555.4795533	1.389767287
6.171055752	0.559006542	-2.806024605	5.984720238	0.83728858	773.4049717	556.0133636	1.390982703
6.21855295	0.550993801	-2.833779575	6.03488835	0.837436624	775.0548839	556.5533004	1.392597768
6.261211556	0.543452397	-2.858879579	6.080060757	0.837575961	776.1379889	556.8941054	1.393690437
6.306437578	0.535439656	-2.885498961	6.127957693	0.837724005	777.9413683	557.5055898	1.395396535
6.353934775	0.526955577	-2.913489599	6.178282917	0.837880759	779.1469197	557.9173933	1.396527387
6.39570466	0.518942835	-2.938380913	6.222723715	0.838028803	780.34998	558.3082984	1.397704426
6.44527554	0.510458756	-2.967408392	6.275122622	0.838185557	781.9159623	558.8305355	1.399200496
6.497710077	0.502446015	-2.997632031	6.330228072	0.838333601	782.818174	559.1819287	1.399934679
6.542146124	0.493961936	-3.024092094	6.377492146	0.838490355	784.2495663	559.6384245	1.401350465
6.585397211	0.485477857	-3.049959677	6.423571259	0.838647108	785.8100486	560.2092413	1.402708115
6.631906941	0.476993778	-3.077456582	6.472909015	0.838803861	786.8047528	560.4601323	1.403854989
6.677034216	0.467567023	-3.104733596	6.521178541	0.838978031	788.2687835	560.9886836	1.40514204
6.723642693	0.459554282	-3.132044205	6.570457932	0.839126076	789.0901311	561.2721761	1.405895686
6.765511324	0.451070203	-3.157220561	6.61515459	0.83928283	790.3781683	561.6915688	1.407139099
6.80846617	0.442114786	-3.183175692	6.661094575	0.839448291	791.8758256	562.2913709	1.408301579
6.850137308	0.433159369	-3.20848897	6.705750852	0.839613753	792.7959189	562.4969187	1.409422688
6.895659571	0.423732615	-3.235963478	6.754415366	0.839787923	793.9193939	562.8619434	1.41050466
6.942169301	0.414777198	-3.263696051	6.803910235	0.839953385	795.1053449	563.3079974	1.411493088
6.994307597	0.405821781	-3.294242908	6.85903367	0.840118847	796.1551572	563.6475768	1.412505243
7.042496022	0.396866364	-3.322814829	6.910207234	0.840284309	797.5122044	564.1000879	1.413777841
7.085747108	0.386968272	-3.349389418	6.956757684	0.840467188	798.3344963	564.4149692	1.414446001
7.129195688	0.377541518	-3.375827085	7.003348516	0.840641358	799.3981419	564.7390107	1.415517835
7.173335496	0.368114763	-3.402610366	7.050630575	0.840815528	800.7290485	565.2032002	1.41671004
7.220141466	0.358688009	-3.430726729	7.100578796	0.840989699	801.5199445	565.4261292	1.417550239
7.263293806	0.348789917	-3.457251945	7.1470305	0.841172577	802.7833169	565.8674024	1.418677438
7.313753406	0.338420487	-3.48766646	7.200946578	0.841364165	803.5661442	566.0877228	1.419508164
7.358880682	0.328993732	-3.514943475	7.249216104	0.841538335	804.5897971	566.4087104	1.420510988
7.404501691	0.31909564	-3.542703025	7.298136477	0.841721214	805.809213	566.8354124	1.421592927
7.451208914	0.310140223	-3.570534346	7.34782884	0.841886676	806.4942803	567.0844032	1.422176797
7.494262507	0.300713469	-3.596774519	7.394024684	0.842060846	807.5482436	567.4152513	1.423205037
7.541265971	0.291286714	-3.624989628	7.444170399	0.842235016	808.6515447	567.8238833	1.424123867
7.590046877	0.28185996	-3.654093459	7.496093557	0.842409187	809.293224	568.0580874	1.424666318
7.633594203	0.271961867	-3.680816168	7.542940248	0.842592065	810.5220627	568.3963283	1.425980469
7.681881375	0.262535113	-3.709673131	7.594369671	0.842766236	811.0627478	568.5568937	1.426528738
7.733032204	0.252165683	-3.74043326	7.648976976	0.842957823	812.1151096	568.9074379	1.427499546
7.779245693	0.242267591	-3.768489051	7.69848983	0.843140702	813.2980929	569.3728137	1.428410478
7.824175475	0.232840836	-3.795667319	7.746561863	0.843314872	813.8641083	569.5413365	1.428981632
7.875326303	0.221528731	-3.826898786	7.801483393	0.843523877	814.7671604	569.8626649	1.429760556
7.917984909	0.212573314	-3.852705797	7.847127138	0.843689338	815.5417292	570.1613955	1.430369954
7.964099652	0.201732546	-3.881183553	7.89685547	0.843889634	816.4049712	570.3984868	1.43128881
8.012781811	0.191363116	-3.910709347	7.948994105	0.844081221	817.4686068	570.834195	1.432059631
8.06452512	0.181465024	-3.941530048	8.004036778	0.8442641	817.8956574	570.9258892	1.43257763
8.110541116	0.170624256	-3.96995843	8.053666364	0.844464396	818.7211901	571.2720338	1.433154682
8.160408236	0.160726164	-3.999841036	8.106832848	0.844647275	819.6203476	571.5212589	1.434102992
8.198721984	0.149885397	-4.024418294	8.148760185	0.844847571	820.2064974	571.7674602	1.434510626
8.247996623	0.14092998	-4.053533322	8.201019963	0.845013033	821.2003804	572.0887205	1.435442355
8.294703847	0.130089212	-4.082307317	8.251340776	0.845213328	822.1153162	572.4241251	1.436199629
8.335387517	0.12019112	-4.107598199	8.295323811	0.845396207	822.7689762	572.6318968	1.436820025
8.37814487	0.109350352	-4.134397259	8.341694752	0.845596503	823.7164233	572.9782195	1.437605122
8.429789432	0.098980922	-4.165404255	8.396795791	0.84578809	824.0116277	573.076783	1.437872991
8.477681617	0.088611492	-4.194535062	8.448144453	0.845979678	824.8800513	573.3562235	1.438686836
8.523302626	0.077770725	-4.222765951	8.497379051	0.846179974	825.6621822	573.6370018	1.439346101
8.569516115	0.067401295	-4.25105741	8.547049017	0.846371561	826.3739341	573.8844484	1.439965722
8.617507047	0.056560527	-4.28047326	8.598653538	0.846571857	827.3508993	574.2203805	1.440824686
8.665399232	0.045719759	-4.309839736	8.650159312	0.846772153	827.7373363	574.3593078	1.44114899
8.709440292	0.035350329	-4.337044981	8.697656849	0.84696374	828.1615765	574.5314712	1.441455548
8.757332477	0.024038224	-4.366647127	8.749319736	0.847172744	829.2992443	574.9207278	1.442458419
8.799003615	0.013668794	-4.392667411	8.794447351	0.847364332	829.5408336	574.9607166	1.44277828
8.848771989	0.002356689	-4.42320765	8.847986426	0.847573336	830.4060369	575.2798677	1.443481831
8.892121822	-0.009898092	-4.451009957	8.895421186	0.847799758	831.202665	575.5351334	1.444225759
8.932706745	-0.019796184	-4.476251465	8.939305474	0.847982636	831.7070041	575.6627054	1.444781808
8.975957832	-0.030636952	-4.503297392	8.986170149	0.848182932	832.7318022	576.0446838	1.44560279
9.022763802	-0.04147772	-4.532120761	9.036589709	0.848383228	833.0181858	576.099685	1.445961884
9.073420897	-0.052789825	-4.563105361	9.091017505	0.848592232	833.5995608	576.3239027	1.4464081
9.117560704	-0.064573268	-4.591066986	9.139085127	0.848809945	834.2521747	576.5720286	1.446917529
